-0.26794
-0.25757
-0.28778
-0.3064
-0.29236
-0.29846
-0.33875
-0.36377
-0.36163
-0.38483
-0.42847
-0.44037
-0.4126
-0.40955
-0.43915
-0.44647
-0.42419
-0.42603
-0.45654
-0.46143
-0.43518
-0.43335
-0.45807
-0.45654
-0.42633
-0.42603
-0.45441
-0.46021
-0.43365
-0.43243
-0.45166
-0.43365
-0.36011
-0.27466
-0.15717
0.044861
0.31738
0.50842
0.52246
0.36896
0.050964
-0.40619
-0.81879
-0.98816
-0.85175
-0.60089
-0.41626
-0.32623
-0.30457
-0.34027
-0.3772
-0.36407
-0.32806
-0.33264
-0.35583
-0.34332
-0.3067
-0.30579
-0.32227
-0.3064
-0.27344
-0.27649
-0.29449
-0.27893
-0.24872
-0.25513
-0.26764
-0.24078
-0.19897
-0.19714
-0.2066
-0.17822
-0.13733
-0.13733
-0.14862
-0.11993
-0.075684
-0.071716
-0.078735
-0.054626
-0.02655
-0.044861
-0.075378
-0.071106
-0.061646
-0.097656
-0.14557
-0.15778
-0.16571
-0.21912
-0.27863
-0.29724
-0.30609
-0.3537
-0.40466
-0.4126
-0.4071
-0.43488
-0.46112
-0.44739
-0.43091
-0.45288
-0.47699
-0.46326
-0.44556
-0.46295
-0.47455
-0.448
-0.42725
-0.44586
-0.46051
-0.43579
-0.41687
-0.43793
-0.45135
-0.42175
-0.3952
-0.40924
-0.41901
-0.39337
-0.37659
-0.39734
-0.40985
-0.38483
-0.36987
-0.39185
-0.40192
-0.37537
-0.3653
-0.39856
-0.41748
-0.39398
-0.37994
-0.40466
-0.41931
-0.39459
-0.38239
-0.40527
-0.41718
-0.39276
-0.38635
-0.41412
-0.42511
-0.39978
-0.39337
-0.42236
-0.43304
-0.40558
-0.39917
-0.42755
-0.43823
-0.41077
-0.40375
-0.42938
-0.43762
-0.41229
-0.40894
-0.43488
-0.43671
-0.39978
-0.37842
-0.37994
-0.35522
-0.30396
-0.29083
-0.31555
-0.31738
-0.27832
-0.26093
-0.28137
-0.28809
-0.27405
-0.28595
-0.32074
-0.33173
-0.32013
-0.34943
-0.40283
-0.41901
-0.39337
-0.39551
-0.42633
-0.42908
-0.40283
-0.40985
-0.43854
-0.43518
-0.40222
-0.40741
-0.43823
-0.43671
-0.40131
-0.39948
-0.42328
-0.4184
-0.39154
-0.40009
-0.42816
-0.41931
-0.38055
-0.35126
-0.30151
-0.16968
0.042114
0.26123
0.45929
0.56763
0.50964
0.21759
-0.2359
-0.64819
-0.87433
-0.87463
-0.67841
-0.42908
-0.26367
-0.2475
-0.29877
-0.30762
-0.27893
-0.28046
-0.29877
-0.28198
-0.2478
-0.25421
-0.27496
-0.25391
-0.21545
-0.22156
-0.24475
-0.22827
-0.19226
-0.19562
-0.20935
-0.18097
-0.13824
-0.14069
-0.15717
-0.13
-0.084839
-0.079956
-0.086975
-0.058594
-0.018311
-0.016785
-0.019226
0.01709
0.056458
0.044861
0.024719
0.04364
0.064087
0.036316
-0.0033569
-0.0064087
-0.012817
-0.067749
-0.12817
-0.14618
-0.15869
-0.2124
-0.26703
-0.27679
-0.28107
-0.32074
-0.35431
-0.34149
-0.32928
-0.35522
-0.37628
-0.35248
-0.33173
-0.3537
-0.37018
-0.34424
-0.32166
-0.33936
-0.35156
-0.32135
-0.29938
-0.31891
-0.3299
-0.29785
-0.27588
-0.29419
-0.30365
-0.27222
-0.25238
-0.27313
-0.28412
-0.25452
-0.23865
-0.26123
-0.26825
-0.23499
-0.21973
-0.24658
-0.26001
-0.23499
-0.22583
-0.25238
-0.26184
-0.23254
-0.22308
-0.24841
-0.2536
-0.22064
-0.21301
-0.24109
-0.24994
-0.22247
-0.21881
-0.24811
-0.25665
-0.23132
-0.22827
-0.25238
-0.25116
-0.22095
-0.22217
-0.25146
-0.25269
-0.22217
-0.22217
-0.24933
-0.24811
-0.21606
-0.21667
-0.24536
-0.24445
-0.21271
-0.21454
-0.24323
-0.24017
-0.20508
-0.19684
-0.20782
-0.18341
-0.12726
-0.11078
-0.12878
-0.12604
-0.094604
-0.087891
-0.098267
-0.08606
-0.066223
-0.091858
-0.13184
-0.13336
-0.11566
-0.14893
-0.20905
-0.22888
-0.20935
-0.21637
-0.24048
-0.23468
-0.21423
-0.23132
-0.2594
-0.24597
-0.21484
-0.22583
-0.25726
-0.24994
-0.22064
-0.22949
-0.25146
-0.23895
-0.21179
-0.22552
-0.25116
-0.23804
-0.20599
-0.19562
-0.16174
-0.048218
0.13519
0.33417
0.55695
0.72571
0.72449
0.47058
0.036621
-0.38849
-0.66589
-0.72906
-0.55725
-0.28412
-0.097656
-0.080261
-0.13519
-0.14679
-0.12207
-0.12909
-0.14709
-0.1239
-0.089722
-0.1001
-0.12115
-0.10071
-0.069275
-0.080261
-0.098572
-0.071411
-0.036011
-0.045166
-0.06134
-0.032959
0.0054932
0.00030518
-0.010071
0.022888
0.06073
0.055542
0.050659
0.090027
0.13123
0.1297
0.12695
0.16754
0.20264
0.19012
0.17426
0.2002
0.21851
0.18707
0.15289
0.15594
0.14801
0.093689
0.041504
0.029602
0.0033569
-0.065918
-0.12512
-0.13153
-0.14343
-0.19196
-0.22583
-0.21362
-0.21118
-0.2478
-0.27222
-0.24719
-0.23346
-0.25787
-0.27283
-0.24536
-0.23376
-0.25665
-0.26337
-0.2301
-0.2182
-0.24536
-0.25543
-0.22003
-0.20477
-0.2298
-0.23987
-0.21057
-0.20538
-0.23438
-0.24261
-0.20782
-0.20111
-0.23132
-0.24048
-0.20691
-0.19806
-0.22247
-0.22583
-0.18982
-0.18616
-0.2182
-0.22949
-0.20447
-0.21057
-0.24872
-0.26001
-0.2301
-0.22858
-0.25635
-0.25726
-0.22369
-0.22491
-0.25787
-0.26062
-0.22766
-0.22705
-0.25574
-0.25421
-0.22003
-0.22461
-0.25909
-0.26154
-0.22705
-0.22614
-0.25146
-0.24841
-0.2179
-0.22369
-0.25024
-0.24261
-0.2066
-0.21332
-0.24536
-0.24078
-0.2066
-0.20996
-0.2359
-0.22339
-0.18097
-0.17242
-0.18188
-0.15411
-0.10437
-0.10223
-0.12604
-0.112
-0.068054
-0.063477
-0.08667
-0.086975
-0.073547
-0.092468
-0.1236
-0.12909
-0.13214
-0.17792
-0.22278
-0.21576
-0.19196
-0.21027
-0.23712
-0.22369
-0.20264
-0.22369
-0.25146
-0.23773
-0.21637
-0.23163
-0.25085
-0.23438
-0.21637
-0.23315
-0.24292
-0.2182
-0.20172
-0.22614
-0.24414
-0.21759
-0.1709
-0.12543
-0.027161
0.16663
0.41077
0.62103
0.72449
0.66437
0.38147
-0.081482
-0.50812
-0.71045
-0.65704
-0.45013
-0.22888
-0.073242
-0.043335
-0.10742
-0.15198
-0.12238
-0.092468
-0.11322
-0.13367
-0.10559
-0.084839
-0.10925
-0.12054
-0.07782
-0.045776
-0.065613
-0.081177
-0.044556
-0.018311
-0.037842
-0.047607
-0.0039673
0.02533
0.0045776
-0.0021362
0.04364
0.074463
0.060425
0.061035
0.11566
0.15045
0.13672
0.13794
0.18738
0.21027
0.17944
0.16205
0.19501
0.20325
0.15778
0.12421
0.13184
0.10986
0.042419
-0.0061035
-0.0079346
-0.039063
-0.11139
-0.15533
-0.14801
-0.16815
-0.22461
-0.24597
-0.21362
-0.21301
-0.25543
-0.26733
-0.22919
-0.22369
-0.26062
-0.26825
-0.22797
-0.21973
-0.24902
-0.2478
-0.20416
-0.20142
-0.23468
-0.23315
-0.18494
-0.17731
-0.21057
-0.21027
-0.16602
-0.15991
-0.18982
-0.18951
-0.15228
-0.15442
-0.18829
-0.18219
-0.1416
-0.14709
-0.18616
-0.18463
-0.14496
-0.15259
-0.19012
-0.18311
-0.13947
-0.14496
-0.18402
-0.18188
-0.14435
-0.15381
-0.19073
-0.18127
-0.13916
-0.14893
-0.18738
-0.17853
-0.13367
-0.13031
-0.1474
-0.11597
-0.054321
-0.049744
-0.072632
-0.055847
-0.010986
-0.011902
-0.039063
-0.025024
0.0015259
-0.02533
-0.07019
-0.071716
-0.064087
-0.11688
-0.18402
-0.18524
-0.15411
-0.17029
-0.20447
-0.19012
-0.15961
-0.18005
-0.21423
-0.19684
-0.16541
-0.18829
-0.22156
-0.20294
-0.17181
-0.19135
-0.21881
-0.19287
-0.16083
-0.18433
-0.21454
-0.1825
-0.11566
-0.066528
0.021973
0.22491
0.49286
0.70496
0.78125
0.71075
0.42877
-0.042419
-0.49225
-0.69763
-0.62897
-0.41626
-0.2066
-0.057373
-0.021667
-0.079651
-0.12299
-0.08728
-0.051575
-0.072937
-0.093079
-0.056458
-0.025635
-0.045166
-0.060425
-0.022583
0.00091553
-0.025635
-0.039978
0.0042725
0.036316
0.0177
0.010071
0.057983
0.08728
0.065308
0.056763
0.10712
0.14099
0.12909
0.13092
0.18616
0.22003
0.2066
0.20874
0.26031
0.28198
0.2536
0.24323
0.27863
0.27771
0.22186
0.18433
0.1944
0.17212
0.1004
0.051575
0.054016
0.024414
-0.047607
-0.085754
-0.069275
-0.084229
-0.14069
-0.1651
-0.13275
-0.13031
-0.16998
-0.18158
-0.14282
-0.13824
-0.17303
-0.177
-0.13397
-0.12848
-0.16205
-0.16266
-0.11963
-0.11658
-0.14771
-0.14191
-0.094299
-0.090332
-0.12543
-0.12238
-0.079651
-0.081482
-0.11871
-0.11383
-0.070496
-0.076599
-0.11719
-0.1123
-0.064392
-0.063171
-0.098267
-0.098572
-0.064087
-0.073242
-0.10376
-0.083618
-0.025024
-0.015564
-0.036926
-0.015869
0.034485
0.03418
0.012817
0.042725
0.09552
0.082092
0.029602
0.023499
0.050964
0.020447
-0.04303
-0.066223
-0.057678
-0.08667
-0.12604
-0.11017
-0.077209
-0.099182
-0.13885
-0.12451
-0.087585
-0.10559
-0.14221
-0.12817
-0.095215
-0.10986
-0.13641
-0.112
-0.076599
-0.098267
-0.13214
-0.11108
-0.079041
-0.092773
-0.092468
-0.0039673
0.14984
0.32959
0.58777
0.87646
1.0123
0.88013
0.52734
0.1004
-0.31158
-0.59601
-0.59753
-0.34302
-0.085754
0.0094604
-0.0030518
-0.0036621
0.0015259
-0.022888
-0.036011
0.0018311
0.030212
0.0064087
-0.0094604
0.032349
0.065002
0.04425
0.028687
0.064087
0.090637
0.067749
0.057983
0.10742
0.14221
0.12299
0.1123
0.15717
0.18738
0.16876
0.16602
0.22186
0.26031
0.24384
0.23926
0.28961
0.31982
0.29724
0.28534
0.32288
0.33386
0.29449
0.26642
0.28259
0.26398
0.19379
0.14801
0.15564
0.13153
0.056458
0.0045776
0.012207
-0.0015259
-0.054016
-0.079041
-0.051575
-0.054321
-0.097351
-0.10651
-0.066528
-0.062256
-0.10193
-0.10956
-0.064697
-0.056763
-0.093994
-0.097656
-0.05188
-0.04303
-0.074768
-0.075378
-0.029297
-0.023804
-0.059204
-0.058289
-0.011597
-0.007019
-0.043335
-0.045166
-0.0039673
-0.0045776
-0.039673
-0.035095
0.012207
0.012817
-0.020142
-0.0088501
0.046692
0.059204
0.038147
0.054932
0.10742
0.11322
0.08606
0.10437
0.15228
0.14404
0.096436
0.088501
0.11688
0.092773
0.027771
-0.0036621
-0.0021362
-0.031738
-0.06897
-0.055237
-0.016785
-0.033264
-0.075378
-0.06897
-0.039063
-0.06073
-0.098267
-0.081177
-0.039978
-0.056458
-0.094299
-0.080872
-0.043335
-0.058899
-0.091248
-0.068665
-0.028687
-0.045166
-0.06134
0.0076294
0.15442
0.33173
0.59357
0.90393
1.0687
0.96771
0.65979
0.27435
-0.13
-0.47668
-0.5777
-0.37659
-0.10681
0.025024
0.037537
0.041504
0.044861
0.014038
-0.007019
0.028381
0.063477
0.043335
0.020142
0.055847
0.091553
0.073853
0.053406
0.085144
0.11444
0.095215
0.080872
0.11902
0.14862
0.12695
0.11536
0.16296
0.19928
0.17822
0.16449
0.21057
0.24933
0.23834
0.23773
0.29083
0.32623
0.30273
0.2829
0.31555
0.32715
0.2832
0.24689
0.2594
0.24658
0.17914
0.12817
0.13458
0.11871
0.050964
0.00091553
0.010986
0.0042725
-0.047607
-0.07843
-0.050354
-0.045471
-0.08606
-0.10529
-0.068665
-0.057678
-0.094299
-0.10773
-0.067444
-0.053711
-0.084229
-0.093689
-0.053406
-0.044861
-0.07843
-0.081177
-0.03418
-0.022583
-0.054626
-0.059509
-0.015259
-0.0079346
-0.044556
-0.052795
-0.014954
-0.013123
-0.045776
-0.042419
0.011902
0.025024
0
0.010986
0.06958
0.086975
0.059814
0.064392
0.11505
0.1297
0.10162
0.09552
0.11566
0.092773
0.04303
0.029297
0.043945
0.0018311
-0.07019
-0.088196
-0.054626
-0.058594
-0.093079
-0.089111
-0.054932
-0.07019
-0.11353
-0.10895
-0.068359
-0.077209
-0.11505
-0.10651
-0.066223
-0.075684
-0.11353
-0.10406
-0.064392
-0.074463
-0.10803
-0.09552
-0.036316
0.0094604
0.08667
0.28961
0.59814
0.86823
0.98602
0.95734
0.75012
0.33417
-0.1532
-0.49377
-0.5661
-0.42297
-0.2066
-0.014038
0.075073
0.035706
-0.026855
-0.016479
0.023193
0.010986
-0.013428
0.0177
0.06073
0.046387
0.016785
0.039368
0.073242
0.057373
0.038757
0.076599
0.12024
0.10651
0.085144
0.11993
0.15869
0.14526
0.1297
0.16968
0.21393
0.20599
0.19836
0.24231
0.28137
0.26855
0.25726
0.29846
0.32776
0.29785
0.26794
0.28992
0.29694
0.24872
0.20142
0.20721
0.20294
0.15533
0.10712
0.093384
0.06958
0.011902
-0.039978
-0.055237
-0.064392
-0.082397
-0.087891
-0.081177
-0.087891
-0.098877
-0.094299
-0.082703
-0.089417
-0.09613
-0.084839
-0.068665
-0.074768
-0.083923
-0.071106
-0.050354
-0.05188
-0.061951
-0.053101
-0.039368
-0.045776
-0.049744
-0.028992
-0.0033569
-0.011902
-0.029297
-0.020752
-0.00091553
-0.0048828
-0.021973
-0.014954
0.0015259
-0.0018311
-0.0091553
0.012207
0.04364
0.055847
0.06012
0.083618
0.1059
0.10345
0.098877
0.12451
0.14618
0.13
0.098572
0.089417
0.089111
0.06134
0.023499
0.005188
-0.010071
-0.043335
-0.067749
-0.056458
-0.039368
-0.051575
-0.07019
-0.066223
-0.056458
-0.066833
-0.074463
-0.061646
-0.052795
-0.068054
-0.080261
-0.067139
-0.054932
-0.062866
-0.067749
-0.052185
-0.04303
-0.054321
-0.050659
0.0039673
0.09552
0.21729
0.40924
0.67352
0.91064
0.97443
0.8432
0.53589
0.097046
-0.33661
-0.58014
-0.52704
-0.28076
-0.057983
0.055847
0.079041
0.053406
0.018921
0.016174
0.040283
0.054321
0.047913
0.050354
0.06958
0.078735
0.070801
0.072937
0.088501
0.09552
0.089417
0.098267
0.12421
0.13641
0.13336
0.1413
0.16388
0.17792
0.18158
0.19897
0.22919
0.2475
0.25482
0.27405
0.30518
0.31982
0.32196
0.33386
0.35248
0.35187
0.33325
0.32257
0.31921
0.29999
0.26611
0.23743
0.2121
0.16785
0.11658
0.083618
0.062561
0.028381
-0.011292
-0.029602
-0.032654
-0.049133
-0.070496
-0.073853
-0.063171
-0.07019
-0.08606
-0.083923
-0.071716
-0.073547
-0.082703
-0.075989
-0.06073
-0.064697
-0.073547
-0.064697
-0.045166
-0.04303
-0.049438
-0.041199
-0.025635
-0.027466
-0.034485
-0.024719
-0.010071
-0.014038
-0.022583
-0.015564
-0.0042725
-0.010681
-0.020142
-0.010986
0.0018311
-0.0048828
-0.016174
-0.0091553
-0.00091553
-0.011292
-0.02533
-0.021057
-0.010071
-0.017395
-0.028381
-0.022888
-0.012512
-0.012512
-0.0045776
0.025024
0.057983
0.066223
0.065613
0.079041
0.094299
0.097656
0.10529
0.11902
0.12207
0.095215
0.071411
0.068359
0.058899
0.021667
-0.018921
-0.035706
-0.040588
-0.056152
-0.064697
-0.056458
-0.047607
-0.059204
-0.066528
-0.059509
-0.057068
-0.072021
-0.080872
-0.068359
-0.06012
-0.071716
-0.07782
-0.064087
-0.053711
-0.063782
-0.069885
-0.057983
-0.048218
-0.041809
0.0042725
0.11047
0.26184
0.45166
0.69611
0.91431
0.96436
0.77881
0.4068
-0.044861
-0.42328
-0.59875
-0.49469
-0.22888
-0.018005
0.05249
0.04425
0.029907
0.020142
0.0094604
0.015259
0.039063
0.050049
0.041809
0.041504
0.059204
0.068665
0.063782
0.06897
0.088196
0.097046
0.094299
0.10559
0.1297
0.14069
0.13763
0.14893
0.1767
0.19409
0.19958
0.21637
0.24445
0.26093
0.26733
0.28778
0.31647
0.32562
0.3183
0.32471
0.34058
0.33691
0.31738
0.30548
0.29816
0.26764
0.22003
0.18921
0.16876
0.13092
0.07843
0.04364
0.023193
-0.007019
-0.041199
-0.055847
-0.057068
-0.069275
-0.088196
-0.090027
-0.082703
-0.090027
-0.10193
-0.096741
-0.081787
-0.083618
-0.090332
-0.081482
-0.066223
-0.069275
-0.078735
-0.070801
-0.055542
-0.059204
-0.067749
-0.057678
-0.039978
-0.040588
-0.047302
-0.037842
-0.023804
-0.027771
-0.039368
-0.03479
-0.025024
-0.031433
-0.037842
-0.028381
-0.0177
-0.027161
-0.040894
-0.0354
-0.027771
-0.036926
-0.047913
-0.039673
-0.029602
-0.039673
-0.050964
-0.045166
-0.037537
-0.049133
-0.06134
-0.054626
-0.04364
-0.050659
-0.056763
-0.045776
-0.032959
-0.031128
-0.024719
0.0036621
0.032043
0.038757
0.040588
0.051575
0.062561
0.066833
0.07843
0.098572
0.098877
0.067444
0.041199
0.036011
0.02594
-0.0097656
-0.04364
-0.054932
-0.057373
-0.071716
-0.07843
-0.06897
-0.062256
-0.072327
-0.079346
-0.071411
-0.07019
-0.084839
-0.091553
-0.080261
-0.072632
-0.082397
-0.085754
-0.075684
-0.070496
-0.079956
-0.079956
-0.067444
-0.062256
-0.065002
-0.032654
0.05249
0.17853
0.35522
0.60608
0.87158
0.99091
0.87311
0.53589
0.071716
-0.35675
-0.59143
-0.53772
-0.28809
-0.061035
0.036621
0.041809
0.022278
0.0036621
-0.0048828
0.0067139
0.028381
0.033264
0.025024
0.032959
0.054932
0.062866
0.056763
0.063477
0.083923
0.091858
0.087891
0.097656
0.12054
0.13031
0.12909
0.1413
0.16602
0.177
0.17914
0.19684
0.22736
0.24261
0.24994
0.27008
0.30182
0.31464
0.31555
0.32715
0.34271
0.33722
0.31738
0.30914
0.30579
0.27924
0.23895
0.2121
0.19043
0.14648
0.092468
0.062561
0.046082
0.012817
-0.030518
-0.050354
-0.050659
-0.065002
-0.085449
-0.08667
-0.075684
-0.081482
-0.09491
-0.090637
-0.076294
-0.079041
-0.089111
-0.082092
-0.06897
-0.06958
-0.074768
-0.062866
-0.048218
-0.05188
-0.057373
-0.046082
-0.030823
-0.0354
-0.040588
-0.028687
-0.013123
-0.018311
-0.026245
-0.016174
-0.0036621
-0.010071
-0.019226
-0.012207
-0.0027466
-0.010986
-0.019836
-0.011902
-0.0024414
-0.012207
-0.021973
-0.014648
-0.007019
-0.0177
-0.026855
-0.019226
-0.011292
-0.023499
-0.033264
-0.023193
-0.013428
-0.022583
-0.031738
-0.024414
-0.01709
-0.02594
-0.030823
-0.019226
-0.011902
-0.021362
-0.02594
-0.0097656
0.0076294
0.012512
0.027466
0.059204
0.083313
0.082703
0.080566
0.096436
0.11505
0.11871
0.11871
0.12024
0.10895
0.082092
0.065613
0.058289
0.038147
-0.0012207
-0.02594
-0.022278
-0.018311
-0.028687
-0.035095
-0.028992
-0.028992
-0.042114
-0.04425
-0.032959
-0.030823
-0.046387
-0.049744
-0.037537
-0.03418
-0.045166
-0.046997
-0.035706
-0.032043
-0.040894
-0.037842
-0.021667
-0.015259
-0.00061035
0.061951
0.18219
0.35278
0.57495
0.83618
1.0037
0.9552
0.66345
0.21515
-0.2243
-0.50354
-0.52277
-0.30945
-0.056152
0.079956
0.093689
0.07019
0.062866
0.06134
0.060425
0.074463
0.097046
0.1001
0.090027
0.093994
0.11139
0.11597
0.11169
0.12207
0.14099
0.14435
0.14069
0.15503
0.18036
0.18921
0.1886
0.20538
0.23315
0.24445
0.24841
0.26794
0.29755
0.31036
0.31525
0.33783
0.36743
0.37811
0.37689
0.38696
0.40009
0.39032
0.36987
0.36011
0.35034
0.31586
0.27191
0.24231
0.21942
0.17517
0.12299
0.089417
0.067749
0.03479
0.0045776
-0.0076294
-0.0094604
-0.024719
-0.039978
-0.037231
-0.030518
-0.041199
-0.049744
-0.039673
-0.025635
-0.034485
-0.04303
-0.033264
-0.018921
-0.023499
-0.028992
-0.017395
-0.0018311
-0.0064087
-0.011292
0.0018311
0.016479
0.013733
0.010376
0.021362
0.032043
0.023193
0.018005
0.029297
0.038757
0.028992
0.019531
0.027466
0.0354
0.026855
0.021973
0.031128
0.0354
0.019836
0.0088501
0.018311
0.026245
0.016174
0.0085449
0.015869
0.020142
0.0082397
0.0012207
0.010681
0.015564
0.0036621
0.0012207
0.013428
0.019226
0.005188
-0.0027466
0.0079346
0.014648
0.0057983
0.0036621
0.016785
0.021362
0.0091553
0.0061035
0.019836
0.02533
0.010986
0.0054932
0.01709
0.027161
0.025635
0.036926
0.065308
0.085144
0.090637
0.10376
0.12482
0.12909
0.12085
0.13153
0.15503
0.15533
0.12787
0.10986
0.11169
0.098572
0.063477
0.035095
0.023804
0.010986
-0.0076294
-0.0091553
0.0021362
-0.00061035
-0.017395
-0.019531
-0.0064087
-0.0079346
-0.023804
-0.027466
-0.01709
-0.018311
-0.030212
-0.028687
-0.015564
-0.016174
-0.028687
-0.025635
-0.012207
-0.014038
-0.026245
-0.0094604
0.052185
0.13428
0.26306
0.47394
0.75592
0.96802
0.99701
0.80658
0.41962
-0.06073
-0.43945
-0.55603
-0.40131
-0.15411
0.020447
0.093079
0.095215
0.062256
0.038147
0.047913
0.070801
0.072937
0.066223
0.074158
0.091553
0.091858
0.08667
0.098572
0.1178
0.11871
0.11597
0.13123
0.1532
0.15503
0.15106
0.16724
0.19165
0.19989
0.20325
0.22278
0.24841
0.25757
0.26428
0.28961
0.3183
0.32776
0.33264
0.35248
0.37292
0.37048
0.35797
0.35675
0.35278
0.32623
0.29663
0.27771
0.25543
0.20905
0.15961
0.12848
0.10132
0.06012
0.023804
0.0097656
-0.0024414
-0.030823
-0.05127
-0.046082
-0.037537
-0.047913
-0.06012
-0.052795
-0.044861
-0.05249
-0.057068
-0.042725
-0.030212
-0.037231
-0.04303
-0.030518
-0.019531
-0.025024
-0.026855
-0.012817
-0.0012207
-0.0064087
-0.0079346
0.0039673
0.0042725
-0.016174
-0.028381
-0.016479
-0.0076294
-0.0177
-0.024414
-0.011597
-0.0030518
-0.012817
-0.018616
-0.0085449
-0.0042725
-0.016785
-0.022888
-0.013123
-0.010376
-0.023804
-0.029602
-0.019226
-0.016479
-0.028687
-0.031433
-0.020142
-0.01709
-0.030518
-0.034485
-0.022888
-0.021667
-0.0354
-0.038757
-0.026245
-0.020447
-0.027466
-0.019531
0.0045776
0.0177
0.017395
0.028076
0.05249
0.065918
0.066528
0.085144
0.11993
0.13123
0.11444
0.098877
0.097656
0.092773
0.074158
0.055237
0.035095
-0.0021362
-0.037537
-0.041504
-0.024414
-0.022583
-0.039063
-0.04425
-0.037842
-0.043945
-0.058594
-0.057983
-0.045776
-0.050354
-0.063477
-0.06073
-0.047607
-0.050354
-0.061646
-0.056152
-0.039368
-0.040894
-0.052185
-0.047607
-0.031128
-0.010376
0.031738
0.13519
0.32013
0.57922
0.86792
1.0577
1.0419
0.7666
0.30731
-0.16357
-0.4834
-0.54962
-0.37598
-0.12238
0.052185
0.094299
0.063171
0.042114
0.046692
0.050049
0.05188
0.065918
0.079956
0.074463
0.071106
0.088501
0.10895
0.10864
0.10345
0.11627
0.13367
0.13336
0.13153
0.15167
0.17548
0.17914
0.18005
0.19714
0.22003
0.2298
0.2417
0.27069
0.29694
0.30121
0.30579
0.33081
0.35492
0.35889
0.35767
0.36652
0.36774
0.34302
0.31799
0.30762
0.29449
0.25574
0.2121
0.18219
0.15045
0.10468
0.064697
0.046387
0.030212
0.0012207
-0.020142
-0.021973
-0.024414
-0.042114
-0.05188
-0.042725
-0.036621
-0.046692
-0.05249
-0.042114
-0.035706
-0.044861
-0.045776
-0.032349
-0.025635
-0.032654
-0.032043
-0.015869
-0.0091553
-0.016479
-0.011597
0.011902
0.023193
0.011292
0.0030518
0.012817
0.019226
0.012207
0.014038
0.029297
0.032654
0.019836
0.014648
0.027161
0.029602
0.015259
0.0091553
0.0177
0.01709
0.0030518
0.00061035
0.012817
0.013733
0.0015259
0.0033569
0.017395
0.01709
0
-0.0048828
0.0067139
0.0061035
-0.0076294
-0.0067139
0.0079346
0.014343
0.0097656
0.022888
0.05127
0.068665
0.075989
0.092163
0.11444
0.11963
0.11932
0.13611
0.15533
0.14587
0.11841
0.10742
0.11108
0.091553
0.05127
0.022583
0.0094604
-0.0064087
-0.021667
-0.0177
-0.0039673
-0.010376
-0.027771
-0.029602
-0.019836
-0.023804
-0.036926
-0.035095
-0.025635
-0.033264
-0.049438
-0.046387
-0.032654
-0.032654
-0.037842
-0.030212
-0.018005
-0.024719
-0.032349
-0.0024414
0.066833
0.15625
0.30396
0.53894
0.82062
0.98785
0.95428
0.71075
0.29419
-0.1712
-0.49744
-0.54688
-0.34912
-0.10895
0.041199
0.092773
0.084839
0.05127
0.036316
0.054016
0.078125
0.078125
0.070801
0.080566
0.09613
0.096436
0.093994
0.10864
0.12451
0.12329
0.12573
0.14587
0.16632
0.16602
0.16541
0.18433
0.20508
0.20813
0.21393
0.23956
0.2652
0.27344
0.28412
0.31128
0.33722
0.34271
0.35126
0.37415
0.39093
0.38422
0.37598
0.37872
0.37231
0.34271
0.31036
0.28748
0.25574
0.20233
0.15472
0.12512
0.093689
0.047913
0.011902
-0.0042725
-0.018616
-0.044861
-0.060425
-0.056458
-0.056152
-0.071411
-0.078125
-0.068359
-0.064087
-0.075989
-0.080566
-0.068054
-0.062866
-0.072937
-0.074158
-0.059814
-0.054321
-0.062561
-0.06012
-0.041809
-0.036011
-0.047302
-0.051575
-0.037231
-0.028992
-0.032959
-0.026855
-0.012817
-0.014343
-0.028381
-0.027771
-0.010376
-0.007019
-0.021057
-0.023804
-0.011597
-0.011292
-0.023193
-0.02594
-0.018921
-0.024414
-0.037842
-0.033875
-0.017395
-0.018921
-0.036011
-0.039368
-0.028076
-0.027771
-0.037842
-0.034485
-0.022278
-0.02655
-0.040894
-0.036926
-0.018311
-0.011292
-0.0094604
0.011902
0.046997
0.06073
0.057678
0.065918
0.085754
0.094604
0.09552
0.10468
0.11078
0.089111
0.061951
0.056152
0.054321
0.021973
-0.024719
-0.046387
-0.046387
-0.059204
-0.075684
-0.068665
-0.053406
-0.064697
-0.085754
-0.084839
-0.072021
-0.082397
-0.099792
-0.09613
-0.083313
-0.091553
-0.10376
-0.093689
-0.07782
-0.089111
-0.10559
-0.099182
-0.080566
-0.074158
-0.045776
0.036011
0.17365
0.35522
0.60059
0.85114
0.96527
0.83527
0.47424
-0.00091553
-0.41534
-0.62805
-0.56
-0.30853
-0.082703
0.0085449
0.0030518
-0.0177
-0.022888
-0.028992
-0.028076
-0.014038
-0.00091553
-0.0073242
-0.011902
0.0021362
0.018311
0.01709
0.01709
0.031738
0.046692
0.041809
0.039978
0.056458
0.075378
0.078735
0.085449
0.10498
0.12238
0.12207
0.12817
0.1535
0.17975
0.18951
0.20233
0.22797
0.2475
0.25024
0.25665
0.27405
0.27954
0.26337
0.24902
0.24445
0.22705
0.18524
0.14435
0.11414
0.075073
0.018921
-0.026245
-0.054626
-0.085144
-0.12634
-0.15472
-0.16296
-0.17578
-0.19836
-0.20935
-0.20264
-0.20386
-0.21851
-0.22217
-0.21179
-0.20905
-0.21942
-0.21729
-0.20264
-0.2005
-0.21271
-0.21179
-0.19714
-0.19257
-0.20355
-0.20508
-0.19379
-0.19196
-0.2005
-0.19714
-0.18127
-0.17914
-0.1889
-0.18707
-0.17303
-0.17395
-0.18677
-0.18768
-0.1767
-0.18005
-0.19348
-0.19501
-0.18433
-0.19012
-0.20569
-0.20294
-0.18982
-0.19501
-0.21362
-0.21698
-0.20477
-0.20508
-0.21545
-0.21271
-0.20111
-0.20538
-0.21729
-0.21149
-0.19806
-0.20447
-0.21881
-0.21179
-0.18707
-0.17242
-0.16235
-0.13947
-0.11322
-0.11108
-0.11719
-0.10223
-0.073853
-0.067444
-0.080566
-0.089111
-0.093079
-0.10986
-0.13397
-0.15381
-0.17517
-0.21301
-0.2417
-0.24292
-0.23224
-0.24048
-0.25299
-0.25055
-0.24292
-0.25513
-0.27039
-0.26764
-0.25635
-0.26062
-0.26764
-0.26123
-0.2533
-0.26398
-0.27344
-0.26398
-0.25116
-0.26001
-0.27069
-0.25909
-0.22339
-0.17151
-0.084839
0.079041
0.31342
0.57434
0.75287
0.75195
0.50934
0.054016
-0.42572
-0.72601
-0.75623
-0.57159
-0.33691
-0.17731
-0.13062
-0.16479
-0.19745
-0.19165
-0.17517
-0.17731
-0.18097
-0.16602
-0.15045
-0.15289
-0.1535
-0.13794
-0.12482
-0.12817
-0.12482
-0.10284
-0.084229
-0.084839
-0.081177
-0.058594
-0.039673
-0.038757
-0.029907
-0.005188
0.016479
0.020752
0.03418
0.065308
0.091553
0.10071
0.1181
0.14801
0.16571
0.16174
0.16113
0.17303
0.17273
0.15076
0.13306
0.12299
0.097656
0.047913
0.0057983
-0.023499
-0.06012
-0.10925
-0.14526
-0.16266
-0.18616
-0.22003
-0.23621
-0.23285
-0.23651
-0.2533
-0.25604
-0.24384
-0.242
-0.25482
-0.25604
-0.24048
-0.23529
-0.24353
-0.242
-0.22888
-0.2243
-0.22919
-0.22064
-0.20172
-0.19928
-0.20813
-0.20203
-0.18311
-0.17975
-0.19012
-0.18707
-0.16998
-0.16663
-0.17487
-0.1712
-0.15564
-0.15411
-0.16357
-0.16144
-0.14984
-0.15228
-0.16144
-0.15747
-0.14587
-0.15076
-0.16266
-0.15686
-0.14343
-0.14648
-0.15869
-0.15472
-0.14252
-0.14587
-0.15717
-0.15076
-0.13428
-0.13153
-0.13031
-0.10712
-0.072937
-0.055847
-0.052795
-0.040894
-0.022278
-0.014954
-0.0054932
0.015564
0.029602
0.012817
-0.014648
-0.021057
-0.020752
-0.04364
-0.080261
-0.10376
-0.11353
-0.13031
-0.14221
-0.13489
-0.12207
-0.13092
-0.14679
-0.14648
-0.13763
-0.14282
-0.15015
-0.14465
-0.13428
-0.14069
-0.14496
-0.13611
-0.12634
-0.13611
-0.14313
-0.13123
-0.11749
-0.12146
-0.11383
-0.060425
0.031738
0.15961
0.35248
0.63019
0.87738
0.94635
0.77667
0.39032
-0.094299
-0.49225
-0.63629
-0.49438
-0.2359
-0.055542
0.011597
0.014343
-0.0048828
-0.02594
-0.026245
-0.007019
0.0073242
0.0042725
0.0082397
0.026855
0.041809
0.037537
0.039063
0.058594
0.074463
0.074158
0.078125
0.097351
0.1123
0.11169
0.11902
0.1416
0.15961
0.16449
0.17883
0.20874
0.23041
0.23407
0.2475
0.27893
0.3067
0.31586
0.32837
0.35004
0.36102
0.35217
0.34515
0.34546
0.33508
0.30609
0.27893
0.25513
0.21606
0.16205
0.11902
0.090942
0.057373
0.015259
-0.010681
-0.021057
-0.036926
-0.060425
-0.068054
-0.063171
-0.06897
-0.083923
-0.083313
-0.06897
-0.066223
-0.075073
-0.071106
-0.055237
-0.053711
-0.065918
-0.067139
-0.055237
-0.053406
-0.060425
-0.053406
-0.037842
-0.037537
-0.046082
-0.041504
-0.02533
-0.025024
-0.036316
-0.03418
-0.022278
-0.023499
-0.030518
-0.025024
-0.011597
-0.018005
-0.034485
-0.036316
-0.026855
-0.029602
-0.038452
-0.033569
-0.024719
-0.033569
-0.047913
-0.045166
-0.032959
-0.037842
-0.050659
-0.048218
-0.038147
-0.04303
-0.05249
-0.046997
-0.037842
-0.046387
-0.06073
-0.055847
-0.038757
-0.030518
-0.023499
-0.0015259
0.024414
0.031433
0.031738
0.045166
0.066528
0.075989
0.079346
0.083923
0.078125
0.054016
0.036011
0.03479
0.025635
-0.017395
-0.063171
-0.080566
-0.078125
-0.083923
-0.091248
-0.088196
-0.08667
-0.10132
-0.1123
-0.10529
-0.097961
-0.11017
-0.12115
-0.11536
-0.10559
-0.11353
-0.12115
-0.11475
-0.10956
-0.12115
-0.1297
-0.11902
-0.10406
-0.087585
-0.039978
0.063171
0.23376
0.46814
0.74799
0.94421
0.92987
0.64514
0.17395
-0.29816
-0.59723
-0.63263
-0.43427
-0.18402
-0.032654
-0.007019
-0.032654
-0.047302
-0.047302
-0.051575
-0.046082
-0.028381
-0.017395
-0.021973
-0.018005
0.00061035
0.012817
0.0067139
0.0076294
0.02533
0.039673
0.036316
0.037231
0.052795
0.065308
0.068054
0.079346
0.10254
0.1181
0.12115
0.13397
0.16022
0.17822
0.18463
0.20294
0.23285
0.24994
0.24902
0.25574
0.27252
0.27313
0.2536
0.23621
0.22614
0.20233
0.16205
0.12817
0.10315
0.065613
0.01709
-0.018921
-0.039673
-0.066528
-0.1004
-0.1181
-0.12268
-0.1355
-0.15503
-0.15778
-0.14648
-0.14648
-0.15778
-0.15656
-0.14343
-0.14282
-0.1535
-0.15289
-0.14221
-0.14252
-0.15106
-0.14526
-0.12848
-0.12573
-0.13062
-0.12268
-0.10651
-0.1059
-0.11658
-0.11322
-0.099792
-0.098877
-0.10712
-0.10376
-0.092163
-0.093994
-0.10071
-0.096741
-0.088501
-0.095215
-0.10437
-0.097656
-0.085754
-0.09491
-0.10986
-0.10803
-0.09613
-0.098267
-0.10712
-0.10376
-0.096436
-0.10406
-0.11475
-0.10529
-0.083618
-0.074463
-0.068665
-0.046997
-0.022278
-0.01709
-0.019531
-0.0067139
0.019836
0.032959
0.034485
0.032959
0.022888
0.00030518
-0.016479
-0.020752
-0.036316
-0.079041
-0.11841
-0.12482
-0.11688
-0.12329
-0.13397
-0.13153
-0.12726
-0.13763
-0.14435
-0.13397
-0.12115
-0.12817
-0.13519
-0.12451
-0.11292
-0.11902
-0.12604
-0.1178
-0.10956
-0.11841
-0.12299
-0.11139
-0.090332
-0.057983
0.013733
0.15594
0.3656
0.6311
0.87128
0.96985
0.83374
0.4538
-0.038757
-0.4483
-0.63263
-0.55176
-0.31097
-0.089111
0.013733
0.0088501
-0.022583
-0.028687
-0.021667
-0.022583
-0.016785
0.00061035
0.011597
0.005188
0.0054932
0.023193
0.037842
0.037842
0.04303
0.058289
0.068359
0.065002
0.074158
0.096741
0.11322
0.11292
0.12085
0.14282
0.15747
0.16022
0.17487
0.20691
0.2298
0.23773
0.25208
0.27954
0.29755
0.29877
0.30182
0.31189
0.30914
0.29053
0.2774
0.26855
0.24017
0.19196
0.14893
0.11841
0.078125
0.030823
-0.0027466
-0.019531
-0.042725
-0.073853
-0.090027
-0.091248
-0.10101
-0.1178
-0.12054
-0.11169
-0.11566
-0.12817
-0.12573
-0.10895
-0.10498
-0.11444
-0.11383
-0.099792
-0.096436
-0.099487
-0.092468
-0.076599
-0.074158
-0.077209
-0.06958
-0.055847
-0.057678
-0.065308
-0.053101
-0.0354
-0.041199
-0.058594
-0.060425
-0.046387
-0.046692
-0.055847
-0.049744
-0.036621
-0.041504
-0.056763
-0.058899
-0.050049
-0.053711
-0.064697
-0.062256
-0.054626
-0.062866
-0.076599
-0.075989
-0.067749
-0.074463
-0.081787
-0.07019
-0.046692
-0.035706
-0.025635
-0.0021362
0.020447
0.020752
0.016479
0.033875
0.06134
0.064697
0.05188
0.041504
0.032959
0.015259
-0.0054932
-0.021057
-0.04303
-0.083313
-0.10864
-0.1062
-0.09491
-0.10071
-0.11139
-0.10895
-0.10651
-0.12146
-0.13123
-0.12085
-0.1059
-0.11169
-0.12054
-0.11566
-0.10895
-0.11749
-0.12451
-0.11536
-0.10406
-0.10895
-0.11047
-0.087891
-0.039063
0.027466
0.1474
0.34454
0.60577
0.83282
0.91858
0.79315
0.43762
-0.053101
-0.46295
-0.62408
-0.5127
-0.27496
-0.07782
0.015564
0.0177
-0.020447
-0.039673
-0.02594
-0.010681
-0.014343
-0.014038
0.00091553
0.014343
0.013428
0.017395
0.036011
0.048828
0.047302
0.05249
0.072632
0.084839
0.081787
0.087891
0.10956
0.12512
0.12726
0.13885
0.16541
0.18494
0.19043
0.2063
0.23682
0.25879
0.26642
0.28412
0.31342
0.32867
0.32257
0.32135
0.32959
0.32501
0.30304
0.28412
0.27069
0.23956
0.19226
0.15594
0.13031
0.090942
0.039978
0.0054932
-0.0094604
-0.029907
-0.059204
-0.071106
-0.067139
-0.073547
-0.089111
-0.090332
-0.075073
-0.069885
-0.077515
-0.07782
-0.069275
-0.071106
-0.076904
-0.065918
-0.045166
-0.04303
-0.052795
-0.049133
-0.032959
-0.027466
-0.028992
-0.018616
-0.0027466
-0.0064087
-0.017395
-0.014343
-0.0012207
-0.0021362
-0.0091553
-0.00091553
0.015259
0.010071
-0.0042725
-0.0012207
0.010681
0.0064087
-0.0073242
-0.0085449
-0.0018311
-0.0097656
-0.023193
-0.020142
-0.0064087
-0.010071
-0.015564
-0.0021362
0.023193
0.038757
0.05127
0.075378
0.095825
0.092773
0.088806
0.10803
0.13062
0.12268
0.097961
0.085449
0.084534
0.065918
0.036011
0.011597
-0.011902
-0.04364
-0.065002
-0.059509
-0.043945
-0.049133
-0.062561
-0.063477
-0.06012
-0.067749
-0.072632
-0.063477
-0.055847
-0.06958
-0.083923
-0.07843
-0.065613
-0.07019
-0.075684
-0.068359
-0.06073
-0.068054
-0.069885
-0.0354
0.032043
0.11688
0.26154
0.48767
0.76385
0.94604
0.93781
0.6958
0.24994
-0.23438
-0.53436
-0.54016
-0.32776
-0.10712
0.014648
0.048218
0.029907
-0.0015259
-0.0082397
0.010986
0.028381
0.026855
0.027771
0.041809
0.050964
0.044861
0.046997
0.061951
0.072937
0.069275
0.075378
0.097351
0.10834
0.10223
0.10712
0.13611
0.16693
0.18494
0.20966
0.24597
0.27222
0.28381
0.30212
0.33325
0.35828
0.36743
0.3833
0.4068
0.4184
0.41168
0.40802
0.41138
0.40283
0.38147
0.36346
0.34576
0.30457
0.24689
0.20569
0.18402
0.15106
0.10529
0.071716
0.057678
0.037537
0.011292
0
0.0021362
-0.007019
-0.023193
-0.024719
-0.011902
-0.012512
-0.021667
-0.016174
-0.0015259
-0.0036621
-0.0177
-0.013733
0.0033569
0.007019
-0.0015259
0.0033569
0.017395
0.015259
0.0021362
0.0039673
0.0177
0.018616
0.0088501
0.010071
0.020447
0.013123
0.00091553
0.0045776
0.018311
0.01709
0.0067139
0.0073242
0.01709
0.011292
-0.00061035
0.0015259
0.0088501
0.00091553
-0.010986
-0.0048828
0.014954
0.023804
0.031128
0.057373
0.088196
0.097351
0.093994
0.10437
0.12787
0.13672
0.1297
0.12238
0.1123
0.089417
0.066833
0.050964
0.032043
-0.007019
-0.038147
-0.040588
-0.030518
-0.037537
-0.050964
-0.050964
-0.046387
-0.057678
-0.067749
-0.063782
-0.055847
-0.066528
-0.075378
-0.067749
-0.057068
-0.066223
-0.076294
-0.070496
-0.059509
-0.063477
-0.067444
-0.055237
-0.028076
0.010681
0.087891
0.23651
0.45685
0.72266
0.93689
0.98511
0.77667
0.32349
-0.17792
-0.5011
-0.54352
-0.36652
-0.14008
0.0064087
0.043945
0.010071
-0.020752
-0.014038
0.0042725
0.0054932
0.0045776
0.015259
0.025635
0.021973
0.022888
0.038757
0.049744
0.043335
0.04303
0.059814
0.071716
0.067139
0.067749
0.083618
0.095215
0.093994
0.10162
0.12543
0.14374
0.14374
0.1532
0.18005
0.20447
0.21484
0.22858
0.25238
0.26642
0.26306
0.26459
0.27435
0.27008
0.24628
0.22675
0.21606
0.1889
0.14008
0.096741
0.063782
0.024414
-0.026245
-0.062866
-0.082092
-0.10803
-0.14374
-0.16418
-0.16846
-0.17761
-0.19379
-0.19684
-0.18677
-0.19012
-0.20477
-0.20813
-0.19867
-0.2005
-0.21393
-0.21454
-0.20294
-0.20294
-0.21118
-0.20569
-0.18951
-0.1889
-0.20233
-0.20111
-0.18982
-0.19379
-0.20905
-0.21088
-0.19958
-0.20264
-0.21667
-0.21606
-0.20294
-0.20569
-0.21881
-0.22125
-0.2121
-0.21545
-0.22949
-0.23254
-0.22766
-0.2359
-0.24933
-0.24994
-0.2417
-0.24139
-0.23834
-0.2124
-0.1825
-0.17487
-0.17914
-0.17151
-0.15289
-0.14587
-0.14374
-0.13702
-0.14282
-0.17609
-0.21118
-0.22491
-0.2359
-0.27313
-0.31799
-0.33752
-0.33661
-0.34424
-0.35645
-0.35767
-0.35828
-0.37292
-0.38696
-0.383
-0.37354
-0.38635
-0.40375
-0.40466
-0.39886
-0.40619
-0.41565
-0.41107
-0.40436
-0.41656
-0.42664
-0.41718
-0.40039
-0.38239
-0.336
-0.23956
-0.073547
0.15564
0.43304
0.62897
0.60699
0.29572
-0.20355
-0.66833
-0.91797
-0.89386
-0.67535
-0.45227
-0.34088
-0.34393
-0.37994
-0.39032
-0.38361
-0.38544
-0.38483
-0.37292
-0.36377
-0.37109
-0.37384
-0.36194
-0.35065
-0.35583
-0.35461
-0.34058
-0.33234
-0.34027
-0.34027
-0.32074
-0.30182
-0.29938
-0.29297
-0.271
-0.25269
-0.24841
-0.23773
-0.21179
-0.19135
-0.18555
-0.17181
-0.14313
-0.12238
-0.11993
-0.11749
-0.1059
-0.10498
-0.11963
-0.12817
-0.13092
-0.15106
-0.19318
-0.23041
-0.25635
-0.28931
-0.33478
-0.36865
-0.38696
-0.40771
-0.4364
-0.45135
-0.4541
-0.46387
-0.47913
-0.47913
-0.466
-0.46417
-0.47455
-0.47058
-0.45227
-0.44403
-0.448
-0.44128
-0.42328
-0.41351
-0.41321
-0.40039
-0.38025
-0.37537
-0.37994
-0.37079
-0.34821
-0.33722
-0.33722
-0.32562
-0.30701
-0.30273
-0.3064
-0.29541
-0.27313
-0.26581
-0.26825
-0.26031
-0.24414
-0.24109
-0.24475
-0.23315
-0.2124
-0.2063
-0.20508
-0.19012
-0.16357
-0.14526
-0.12573
-0.090637
-0.055542
-0.042419
-0.036926
-0.0079346
0.029602
0.039978
0.027466
0.018616
0.021362
0.014343
-0.0045776
-0.021667
-0.038757
-0.061646
-0.072937
-0.058289
-0.037231
-0.036316
-0.042725
-0.032349
-0.0177
-0.021057
-0.028992
-0.018005
0.0045776
0.012207
0.011902
0.024109
0.038757
0.039978
0.040588
0.055847
0.074463
0.075684
0.075378
0.10315
0.16296
0.24445
0.39001
0.63049
0.93933
1.1646
1.2024
0.99762
0.56976
0.065613
-0.29846
-0.37323
-0.19165
0.049438
0.2124
0.27527
0.26764
0.23438
0.22278
0.24231
0.26215
0.26154
0.26062
0.27557
0.28961
0.28931
0.29175
0.30823
0.32166
0.31891
0.32104
0.33905
0.35339
0.3537
0.36102
0.383
0.40009
0.39948
0.40466
0.42847
0.45074
0.4599
0.47211
0.49561
0.51147
0.51208
0.5191
0.53833
0.54901
0.54047
0.53009
0.52704
0.51453
0.48676
0.46326
0.44464
0.41199
0.36438
0.32745
0.30487
0.27557
0.2359
0.20996
0.20111
0.18646
0.16327
0.15137
0.1532
0.14313
0.12177
0.11414
0.12482
0.13092
0.12726
0.13275
0.14526
0.14496
0.13306
0.13275
0.14343
0.14435
0.1358
0.14099
0.15594
0.15594
0.14343
0.14435
0.15839
0.1593
0.14709
0.14587
0.15625
0.15625
0.14709
0.14709
0.15472
0.14801
0.13733
0.14832
0.17181
0.18036
0.17883
0.19043
0.21027
0.21271
0.20813
0.22369
0.25513
0.26581
0.25269
0.23712
0.22644
0.20599
0.177
0.1532
0.13367
0.10132
0.072021
0.061035
0.062561
0.054016
0.041504
0.040283
0.045166
0.03418
0.022278
0.025024
0.035095
0.029297
0.020142
0.02533
0.036926
0.029602
0.0177
0.016479
0.020752
0.012512
0.0064087
0.023499
0.068359
0.13123
0.24261
0.43884
0.71381
0.96527
1.0724
0.96069
0.60638
0.10376
-0.33447
-0.52704
-0.43884
-0.2121
-0.015869
0.083923
0.097046
0.062561
0.042114
0.054321
0.074768
0.073853
0.071106
0.080566
0.088806
0.079956
0.075684
0.088806
0.10345
0.099792
0.1001
0.11475
0.1297
0.12909
0.13367
0.15289
0.16815
0.16632
0.16846
0.18951
0.20874
0.21271
0.22247
0.24658
0.26917
0.27374
0.28198
0.3009
0.31403
0.3064
0.29968
0.30121
0.29297
0.26276
0.23285
0.21088
0.18066
0.13092
0.087891
0.060425
0.031433
-0.0076294
-0.037537
-0.052795
-0.072021
-0.10345
-0.12238
-0.1239
-0.12695
-0.13855
-0.13885
-0.12817
-0.12939
-0.14435
-0.14496
-0.12787
-0.12085
-0.13275
-0.1355
-0.12238
-0.11627
-0.12451
-0.12634
-0.11688
-0.11566
-0.12451
-0.12024
-0.10834
-0.1123
-0.12939
-0.13031
-0.11597
-0.11658
-0.13397
-0.13733
-0.12115
-0.10773
-0.10162
-0.080566
-0.050049
-0.035706
-0.037231
-0.029602
-0.0064087
0.0085449
0.0045776
-0.0018311
-0.012817
-0.039978
-0.069275
-0.084839
-0.095825
-0.12726
-0.16663
-0.18372
-0.18311
-0.19165
-0.20721
-0.20813
-0.19836
-0.2005
-0.21057
-0.20935
-0.20142
-0.20813
-0.22003
-0.2182
-0.21149
-0.22064
-0.23376
-0.22827
-0.21393
-0.21667
-0.22736
-0.22461
-0.21179
-0.19806
-0.15778
-0.065002
0.090942
0.29633
0.55634
0.77545
0.8194
0.59967
0.16327
-0.31372
-0.64301
-0.72968
-0.57373
-0.32532
-0.15106
-0.10956
-0.13763
-0.15594
-0.15137
-0.14923
-0.15076
-0.13947
-0.12665
-0.13031
-0.13489
-0.11993
-0.097656
-0.093994
-0.09552
-0.087585
-0.079041
-0.082397
-0.081177
-0.061951
-0.041199
-0.040588
-0.041199
-0.023499
-0.00061035
0.007019
0.013428
0.035706
0.061646
0.072021
0.082092
0.10406
0.12482
0.12634
0.12543
0.13306
0.13397
0.11292
0.091553
0.082092
0.066528
0.028687
-0.010376
-0.039063
-0.070801
-0.11932
-0.16052
-0.18372
-0.20538
-0.24017
-0.26428
-0.26581
-0.26642
-0.28168
-0.29388
-0.29083
-0.28687
-0.29358
-0.29358
-0.28259
-0.27985
-0.29053
-0.29327
-0.28168
-0.27466
-0.28198
-0.28046
-0.26581
-0.2597
-0.26917
-0.27069
-0.25696
-0.25116
-0.26123
-0.26337
-0.25055
-0.24323
-0.24994
-0.24994
-0.23926
-0.23743
-0.2475
-0.24689
-0.23285
-0.22644
-0.23041
-0.21942
-0.19196
-0.1712
-0.16327
-0.14832
-0.12695
-0.12238
-0.12909
-0.11993
-0.10132
-0.10223
-0.1297
-0.14984
-0.15503
-0.17365
-0.20844
-0.23651
-0.25146
-0.26794
-0.28351
-0.28137
-0.27039
-0.27832
-0.29633
-0.29785
-0.28656
-0.29022
-0.30426
-0.30396
-0.29236
-0.29358
-0.30334
-0.29877
-0.28534
-0.28717
-0.29663
-0.29144
-0.27557
-0.27557
-0.28259
-0.26062
-0.19684
-0.10925
0.027466
0.23956
0.51788
0.72968
0.7605
0.55725
0.14282
-0.34882
-0.70007
-0.77118
-0.59235
-0.3595
-0.21179
-0.15778
-0.159
-0.18677
-0.20325
-0.19043
-0.16846
-0.16754
-0.17487
-0.16693
-0.14771
-0.14252
-0.14282
-0.13092
-0.11597
-0.11444
-0.11292
-0.095825
-0.073242
-0.068359
-0.065308
-0.047302
-0.02533
-0.018005
-0.0091553
0.015564
0.042725
0.05127
0.058899
0.085449
0.11536
0.12695
0.13214
0.14801
0.16205
0.15778
0.14893
0.15076
0.14862
0.12573
0.098572
0.079651
0.056763
0.013123
-0.028992
-0.055847
-0.081177
-0.11902
-0.14893
-0.1593
-0.16815
-0.19379
-0.21118
-0.21027
-0.20844
-0.22247
-0.22736
-0.21332
-0.19989
-0.2063
-0.21057
-0.19836
-0.18799
-0.1944
-0.19714
-0.18524
-0.1767
-0.1825
-0.17944
-0.16144
-0.15076
-0.16022
-0.16479
-0.15228
-0.14465
-0.15289
-0.15442
-0.14221
-0.13672
-0.14679
-0.14923
-0.13794
-0.13489
-0.14832
-0.14923
-0.13672
-0.13336
-0.14618
-0.15137
-0.14221
-0.1416
-0.15076
-0.14343
-0.11627
-0.095825
-0.088196
-0.073242
-0.048828
-0.036926
-0.036621
-0.021667
0.0036621
0.0057983
-0.019226
-0.040588
-0.044861
-0.054321
-0.081177
-0.1062
-0.1236
-0.14557
-0.16754
-0.16907
-0.15747
-0.16022
-0.17883
-0.18402
-0.17426
-0.17303
-0.18341
-0.18311
-0.17212
-0.17334
-0.18311
-0.18188
-0.17151
-0.17395
-0.18127
-0.17334
-0.15594
-0.159
-0.17365
-0.1709
-0.14435
-0.1001
-0.028992
0.11169
0.32959
0.59967
0.8252
0.89569
0.72449
0.30487
-0.20264
-0.56549
-0.65887
-0.51208
-0.28137
-0.10834
-0.040283
-0.059204
-0.096741
-0.10284
-0.086975
-0.082703
-0.083923
-0.071411
-0.052795
-0.053101
-0.055542
-0.042419
-0.021667
-0.019531
-0.023804
-0.012817
0.0042725
0.0076294
0.010986
0.030212
0.053406
0.058594
0.06012
0.074768
0.093994
0.098572
0.1062
0.13153
0.159
0.16663
0.17395
0.19684
0.22156
0.22156
0.21423
0.2179
0.22339
0.20966
0.18982
0.1767
0.15442
0.10956
0.063477
0.036011
0.010681
-0.030212
-0.065308
-0.080872
-0.092163
-0.12024
-0.14313
-0.14404
-0.13947
-0.14893
-0.15625
-0.14923
-0.14435
-0.15411
-0.15991
-0.14923
-0.14191
-0.15076
-0.15198
-0.13824
-0.12665
-0.13489
-0.13794
-0.12451
-0.11475
-0.12115
-0.12146
-0.1062
-0.096436
-0.10529
-0.10864
-0.095825
-0.085449
-0.090637
-0.091248
-0.080872
-0.076294
-0.08606
-0.089111
-0.080261
-0.078125
-0.092468
-0.098572
-0.091553
-0.090332
-0.099487
-0.10132
-0.088806
-0.087891
-0.10101
-0.10132
-0.080872
-0.061951
-0.054932
-0.039368
-0.012207
0.0018311
-0.00061035
0.0073242
0.032959
0.047913
0.041504
0.031128
0.025024
0.011292
-0.010681
-0.026855
-0.040283
-0.069885
-0.10498
-0.11658
-0.10834
-0.10773
-0.1178
-0.11658
-0.10498
-0.11017
-0.12695
-0.12909
-0.11688
-0.1181
-0.13092
-0.12939
-0.11627
-0.11658
-0.12665
-0.12085
-0.10559
-0.10895
-0.1239
-0.11993
-0.10101
-0.084839
-0.049744
0.035095
0.19043
0.40894
0.69427
0.9433
1.0132
0.80688
0.37018
-0.12238
-0.49225
-0.62836
-0.50812
-0.25299
-0.049744
0.016174
-0.0073242
-0.028381
-0.022583
-0.022888
-0.028076
-0.014038
0.0076294
0.0054932
-0.0045776
0.0091553
0.032349
0.035095
0.030823
0.048218
0.073242
0.072327
0.064392
0.080566
0.10864
0.11566
0.11658
0.13458
0.15839
0.16144
0.16327
0.18921
0.21881
0.22095
0.224
0.25391
0.27954
0.23895
0.18951
0.20416
0.26459
0.26733
0.21912
0.19409
0.21057
0.18188
0.11505
0.082092
0.097351
0.072021
0.0082397
-0.023499
-0.0097656
-0.033264
-0.084229
-0.091553
-0.057068
-0.065918
-0.10742
-0.10742
-0.064697
-0.066528
-0.10223
-0.096741
-0.052795
-0.056458
-0.091858
-0.084839
-0.039368
-0.044556
-0.080566
-0.073853
-0.030823
-0.036926
-0.072937
-0.063782
-0.022888
-0.031433
-0.063477
-0.048828
-0.0033569
-0.017395
-0.059509
-0.054321
-0.016785
-0.02594
-0.058289
-0.042419
-0.0048828
-0.023499
-0.063782
-0.05249
-0.014648
-0.028687
-0.061035
-0.039063
0.010376
0.010986
-0.0045776
0.02533
0.068665
0.058899
0.040588
0.079956
0.12695
0.10193
0.050964
0.05127
0.073242
0.040894
-0.012512
-0.021973
-0.021973
-0.062866
-0.098877
-0.075684
-0.046692
-0.075684
-0.11078
-0.08667
-0.057373
-0.083313
-0.11566
-0.093689
-0.068665
-0.096741
-0.12512
-0.095215
-0.065613
-0.089417
-0.11444
-0.083313
-0.056458
-0.085144
-0.11414
-0.08667
-0.047913
-0.027161
0.042725
0.23804
0.51392
0.7959
0.99548
1.0507
0.85571
0.41077
-0.096436
-0.45258
-0.57678
-0.47882
-0.2533
-0.028381
0.064087
0.021973
-0.029602
-0.0082397
0.013123
-0.0088501
-0.014343
0.034485
0.059509
0.029602
0.013428
0.056152
0.077209
0.048523
0.037231
0.083618
0.10681
0.080261
0.073853
0.12421
0.14893
0.12573
0.12177
0.17334
0.19531
0.17212
0.17426
0.23285
0.25879
0.23804
0.23895
0.28839
0.29938
0.26184
0.24872
0.28564
0.27954
0.22583
0.19806
0.21851
0.19531
0.12268
0.075989
0.080872
0.05127
-0.014954
-0.042725
-0.020142
-0.035095
-0.08606
-0.099792
-0.064087
-0.069275
-0.10895
-0.11017
-0.065002
-0.066223
-0.10406
-0.10132
-0.055237
-0.056458
-0.096741
-0.09552
-0.049744
-0.047302
-0.078125
-0.068054
-0.019531
-0.021057
-0.057068
-0.048523
-0.0057983
-0.013733
-0.050354
-0.040894
0.0054932
-0.0018311
-0.039368
-0.032349
0.0061035
-0.0061035
-0.043945
-0.033875
0.005188
-0.007019
-0.041504
-0.025024
0.021057
0.019226
0.0012207
0.033875
0.085144
0.078125
0.050964
0.076904
0.12817
0.11749
0.07782
0.078735
0.096741
0.067749
0.023193
0.021973
0.026245
-0.02655
-0.080261
-0.07019
-0.037842
-0.057678
-0.090027
-0.071411
-0.046082
-0.074158
-0.10803
-0.085144
-0.053711
-0.075684
-0.10345
-0.074768
-0.044861
-0.069275
-0.098572
-0.072632
-0.043945
-0.068665
-0.093689
-0.065002
-0.036621
-0.049438
-0.028076
0.090027
0.26611
0.46204
0.72571
0.99213
1.069
0.85358
0.43091
-0.02594
-0.40466
-0.60211
-0.51636
-0.22888
0.0021362
0.059509
0.032349
0.034485
0.039673
0.014343
0.0054932
0.050964
0.074158
0.048218
0.035706
0.078125
0.098267
0.068054
0.056458
0.10315
0.12604
0.099792
0.091248
0.14069
0.16693
0.14435
0.13947
0.1886
0.21149
0.19104
0.19348
0.24963
0.27405
0.25513
0.26001
0.31738
0.34027
0.31342
0.30914
0.35034
0.35217
0.30518
0.28107
0.30273
0.28137
0.21118
0.16815
0.17242
0.13977
0.064392
0.023499
0.035706
0.014648
-0.04303
-0.066223
-0.039063
-0.048523
-0.093079
-0.10223
-0.064087
-0.054626
-0.075989
-0.068359
-0.033264
-0.036926
-0.065918
-0.065613
-0.040894
-0.054321
-0.079346
-0.065918
-0.037842
-0.053101
-0.079346
-0.061951
-0.031128
-0.049744
-0.078125
-0.06073
-0.028687
-0.046997
-0.075378
-0.057068
-0.02533
-0.042114
-0.071106
-0.055847
-0.028687
-0.047913
-0.076294
-0.06134
-0.037537
-0.05188
-0.063171
-0.027771
0.012817
0.0091553
0.0036621
0.037537
0.066223
0.047913
0.035095
0.065308
0.085449
0.050354
0.012207
0.019531
0.024109
-0.020752
-0.068054
-0.077209
-0.08606
-0.12756
-0.14923
-0.12238
-0.10254
-0.13
-0.14862
-0.12451
-0.11169
-0.14343
-0.16235
-0.13458
-0.11841
-0.14893
-0.16846
-0.13763
-0.11963
-0.14893
-0.16846
-0.13794
-0.11902
-0.14801
-0.16693
-0.13092
-0.09552
-0.073853
0.0012207
0.19043
0.42297
0.64758
0.82977
0.89783
0.71838
0.271
-0.24231
-0.56122
-0.63416
-0.50293
-0.27527
-0.069885
0.005188
-0.044861
-0.09491
-0.068665
-0.041809
-0.062561
-0.075073
-0.035095
-0.013733
-0.042725
-0.057373
-0.014648
0.0067139
-0.020142
-0.031128
0.016785
0.041199
0.013428
0.0027466
0.048523
0.075378
0.055237
0.055237
0.10742
0.13184
0.10925
0.11047
0.16876
0.19897
0.18066
0.18494
0.24109
0.26367
0.2356
0.22827
0.27008
0.27344
0.22278
0.19043
0.2063
0.18433
0.11353
0.06134
0.058594
0.024719
-0.043945
-0.079346
-0.065308
-0.08728
-0.14374
-0.16571
-0.13458
-0.14038
-0.18372
-0.19226
-0.15411
-0.15198
-0.18402
-0.1828
-0.1416
-0.14343
-0.17914
-0.17548
-0.13062
-0.13336
-0.17029
-0.16632
-0.12054
-0.11963
-0.15228
-0.14313
-0.097046
-0.10162
-0.14038
-0.1355
-0.088806
-0.08728
-0.11871
-0.11078
-0.071716
-0.082703
-0.12238
-0.11749
-0.079346
-0.090637
-0.12756
-0.12146
-0.08728
-0.10254
-0.13855
-0.1236
-0.081177
-0.090637
-0.11749
-0.089722
-0.030823
-0.02655
-0.049744
-0.030823
0.0067139
-0.0015259
-0.022583
0.0030518
0.03479
-0.0015259
-0.057068
-0.054321
-0.03418
-0.074158
-0.13672
-0.14679
-0.13092
-0.16083
-0.19806
-0.18036
-0.15076
-0.17365
-0.2063
-0.18524
-0.15625
-0.1828
-0.21606
-0.19409
-0.16266
-0.18646
-0.21576
-0.19043
-0.16266
-0.18707
-0.21545
-0.18738
-0.15686
-0.1825
-0.20538
-0.16327
-0.094299
-0.041199
0.067139
0.29907
0.58899
0.80994
0.8847
0.77423
0.41565
-0.12482
-0.57251
-0.71838
-0.59143
-0.3653
-0.17426
-0.049438
-0.035706
-0.10284
-0.13977
-0.097351
-0.063782
-0.087585
-0.10406
-0.064392
-0.041199
-0.067444
-0.078125
-0.032959
-0.0079346
-0.036011
-0.048828
-0.0045776
0.021667
0.0015259
-0.00091553
0.049133
0.071716
0.046997
0.046082
0.10071
0.12909
0.11017
0.11414
0.17456
0.2063
0.19104
0.19623
0.24994
0.26611
0.2301
0.21271
0.24231
0.23926
0.18951
0.16205
0.17639
0.15015
0.077515
0.034485
0.040894
0.012512
-0.054626
-0.087585
-0.068054
-0.082092
-0.13428
-0.15198
-0.11963
-0.1239
-0.16235
-0.16754
-0.13
-0.13
-0.16327
-0.16113
-0.12146
-0.12695
-0.16235
-0.15503
-0.1059
-0.1062
-0.14282
-0.13947
-0.094604
-0.095825
-0.12817
-0.11993
-0.074463
-0.079346
-0.11719
-0.11292
-0.069275
-0.072632
-0.1059
-0.098267
-0.061035
-0.072327
-0.10864
-0.097046
-0.057068
-0.071106
-0.11108
-0.10315
-0.063477
-0.075073
-0.112
-0.1001
-0.058289
-0.064087
-0.086975
-0.057678
-0.0024414
-0.0012207
-0.02533
-0.0057983
0.036926
0.0354
0.022583
0.050354
0.07843
0.040283
-0.0073242
0.0039673
0.02655
-0.019531
-0.084534
-0.089417
-0.066528
-0.089111
-0.12085
-0.099487
-0.069885
-0.09552
-0.13092
-0.11047
-0.079956
-0.10254
-0.13214
-0.10803
-0.078735
-0.10468
-0.13519
-0.11047
-0.079651
-0.10254
-0.12817
-0.099182
-0.073547
-0.1001
-0.1239
-0.072937
0.0088501
0.072632
0.20233
0.47089
0.79865
0.99792
1.0004
0.80688
0.39795
-0.12878
-0.53497
-0.62775
-0.46173
-0.23956
-0.074463
0.028381
0.038147
-0.020752
-0.053406
-0.013123
0.0177
-0.0039673
-0.019531
0.016785
0.037842
0.013428
0.0039673
0.049744
0.074768
0.050659
0.039368
0.079956
0.10132
0.080872
0.079041
0.12848
0.14893
0.1239
0.12421
0.17944
0.20721
0.18646
0.18951
0.24292
0.26489
0.24139
0.24384
0.29877
0.31494
0.27649
0.25696
0.28687
0.28137
0.22827
0.1947
0.20325
0.1712
0.098267
0.055847
0.065918
0.040894
-0.020142
-0.047913
-0.02533
-0.041199
-0.091248
-0.10254
-0.064087
-0.061951
-0.093384
-0.090332
-0.045166
-0.044556
-0.082397
-0.084229
-0.041809
-0.040588
-0.073853
-0.068665
-0.025024
-0.02594
-0.059814
-0.053711
-0.011292
-0.014343
-0.049133
-0.037842
0.010376
0.0073242
-0.029602
-0.02594
0.011902
0.00061035
-0.036011
-0.026245
0.014954
0.0024414
-0.039978
-0.034485
0.005188
-0.0033569
-0.037842
-0.028381
0.0082397
-0.0015259
-0.02655
-0.00030518
0.05249
0.054016
0.033875
0.057373
0.099487
0.092773
0.074463
0.10376
0.13672
0.099792
0.047607
0.056763
0.083923
0.042419
-0.02655
-0.040894
-0.024109
-0.048828
-0.082397
-0.065918
-0.038147
-0.065918
-0.10162
-0.083923
-0.055542
-0.081787
-0.11292
-0.085754
-0.050354
-0.072937
-0.10529
-0.083313
-0.054932
-0.076294
-0.10254
-0.074768
-0.046997
-0.072021
-0.097961
-0.059814
0.0030518
0.050659
0.16266
0.41595
0.7486
0.98999
1.0568
0.95459
0.63629
0.1416
-0.32928
-0.55756
-0.50568
-0.30487
-0.097961
0.050354
0.080566
0.018616
-0.020447
0.020447
0.053406
0.025635
0.005188
0.042419
0.07019
0.048828
0.038452
0.07782
0.096741
0.066528
0.055847
0.10376
0.13031
0.10956
0.10712
0.16083
0.19165
0.17181
0.16937
0.2179
0.2417
0.22522
0.23102
0.28351
0.30273
0.2774
0.28107
0.336
0.35217
0.31342
0.29724
0.32562
0.31494
0.25635
0.22156
0.23682
0.21362
0.14191
0.097046
0.10223
0.070801
0.0024414
-0.030823
-0.0091553
-0.018921
-0.063477
-0.074463
-0.038452
-0.044556
-0.087891
-0.094299
-0.053406
-0.054016
-0.092468
-0.093689
-0.05127
-0.049744
-0.084229
-0.083008
-0.042114
-0.044861
-0.076599
-0.068359
-0.023499
-0.028992
-0.065308
-0.057678
-0.014343
-0.020142
-0.055237
-0.049438
-0.0085449
-0.020142
-0.055847
-0.04364
-0.00061035
-0.014038
-0.057678
-0.050964
-0.0085449
-0.020142
-0.059814
-0.053711
-0.012207
-0.013733
-0.036316
-0.0097656
0.044861
0.045776
0.024109
0.046692
0.090942
0.085449
0.063477
0.08667
0.12024
0.089111
0.040283
0.046692
0.069885
0.028381
-0.038757
-0.051575
-0.03418
-0.058289
-0.092163
-0.075989
-0.047607
-0.070801
-0.10254
-0.079651
-0.047607
-0.075073
-0.11078
-0.087891
-0.055237
-0.077515
-0.10956
-0.082703
-0.047302
-0.067749
-0.098572
-0.074768
-0.045776
-0.066528
-0.089111
-0.052185
0.0073242
0.050659
0.15228
0.39001
0.7074
0.96069
1.0648
1.008
0.73273
0.2536
-0.23743
-0.51727
-0.52826
-0.354
-0.1358
0.040894
0.096741
0.042419
-0.0045776
0.026245
0.057983
0.040283
0.029297
0.069885
0.09491
0.071411
0.062561
0.10864
0.13184
0.10315
0.092468
0.14252
0.17059
0.14252
0.12909
0.17456
0.20294
0.18372
0.18097
0.22919
0.25146
0.22858
0.23132
0.28961
0.31586
0.29144
0.28992
0.34149
0.35675
0.31891
0.30182
0.33569
0.33203
0.27435
0.23621
0.24933
0.22797
0.16022
0.11627
0.11963
0.090637
0.023804
-0.0061035
0.016174
0.0012207
-0.052795
-0.06958
-0.03479
-0.035095
-0.074768
-0.082092
-0.041199
-0.039978
-0.074158
-0.070496
-0.024719
-0.02533
-0.061646
-0.059814
-0.014343
-0.015869
-0.052185
-0.045471
0.0030518
0.0024414
-0.033569
-0.026855
0.019531
0.014038
-0.02594
-0.022583
0.018921
0.012207
-0.025024
-0.017395
0.025024
0.013428
-0.030518
-0.027771
0.010071
0.0021362
-0.033569
-0.02533
0.0085449
-0.0091553
-0.047913
-0.036011
0.0061035
-0.0018311
-0.029297
0.00061035
0.061646
0.068054
0.045776
0.066528
0.11078
0.10864
0.08667
0.10406
0.12787
0.092468
0.04364
0.05127
0.069275
0.025024
-0.037231
-0.041809
-0.022583
-0.05127
-0.087891
-0.066833
-0.032959
-0.055847
-0.089722
-0.071716
-0.044556
-0.070496
-0.10315
-0.078125
-0.047302
-0.072327
-0.10437
-0.080261
-0.05249
-0.076294
-0.099792
-0.065613
-0.032043
-0.058594
-0.085754
-0.046082
0.022888
0.079956
0.19196
0.43121
0.72876
0.95825
1.0416
0.95856
0.64331
0.12878
-0.35248
-0.57617
-0.5191
-0.30914
-0.092163
0.064697
0.1004
0.038757
-0.0042725
0.030212
0.058289
0.03418
0.018616
0.06134
0.088196
0.062256
0.047302
0.087891
0.11139
0.085754
0.075073
0.11993
0.14404
0.12024
0.11383
0.16266
0.18646
0.16388
0.16266
0.21606
0.24414
0.22552
0.23102
0.28992
0.31799
0.29846
0.30182
0.35461
0.37048
0.33386
0.31708
0.34851
0.34271
0.28778
0.25757
0.27069
0.24414
0.17059
0.12726
0.13062
0.097656
0.025024
-0.0085449
0.014648
0.0030518
-0.046692
-0.061951
-0.029297
-0.03418
-0.075989
-0.079346
-0.037842
-0.036926
-0.071411
-0.06897
-0.024109
-0.025635
-0.062256
-0.058594
-0.013733
-0.014648
-0.050049
-0.04364
0.0027466
0.0018311
-0.032959
-0.024719
0.021973
0.020142
-0.014954
-0.0079346
0.035706
0.033875
0.0015259
0.014954
0.061646
0.057983
0.026245
0.037537
0.076904
0.062561
0.021667
0.030212
0.068359
0.054321
0.014648
0.024719
0.061951
0.047913
0.011902
0.025635
0.065918
0.057678
0.036926
0.073853
0.13306
0.1358
0.11261
0.13458
0.17456
0.16449
0.14221
0.1651
0.18982
0.14984
0.098877
0.10773
0.12665
0.079956
0.017395
0.013733
0.030518
-0.00030518
-0.036316
-0.014038
0.016174
-0.0085449
-0.040588
-0.016479
0.010071
-0.021667
-0.054932
-0.028076
0.0039673
-0.020447
-0.049744
-0.022583
0.0039673
-0.022278
-0.047607
-0.014038
0.014038
-0.013123
-0.035706
0.010376
0.082703
0.14252
0.26154
0.49591
0.76599
0.9552
1.0025
0.8847
0.54199
0.028381
-0.3949
-0.53101
-0.40955
-0.19196
-0.0042725
0.12177
0.13885
0.076904
0.039368
0.078735
0.10529
0.082092
0.072021
0.11627
0.13367
0.1004
0.088501
0.13611
0.15686
0.12665
0.11841
0.16846
0.19226
0.16541
0.16266
0.2179
0.23865
0.20874
0.20477
0.26245
0.289
0.26642
0.26947
0.32928
0.35706
0.33661
0.34149
0.39612
0.4071
0.36835
0.35675
0.39429
0.38666
0.32745
0.29602
0.31158
0.27924
0.2005
0.15411
0.15747
0.11963
0.041199
0.0048828
0.023499
0.0057983
-0.047913
-0.063782
-0.033875
-0.046997
-0.091553
-0.092163
-0.049744
-0.056763
-0.097046
-0.090637
-0.042419
-0.046082
-0.08606
-0.080261
-0.03418
-0.038452
-0.075684
-0.066528
-0.018616
-0.023499
-0.059509
-0.047607
-0.00061035
-0.007019
-0.042725
-0.029602
0.015259
0.0039673
-0.036011
-0.024414
0.018616
0.0057983
-0.03418
-0.019531
0.02655
0.014954
-0.022278
-0.011292
0.026245
0.0091553
-0.02594
-0.0064087
0.031738
0.0097656
-0.030823
-0.015259
0.020752
-0.0021362
-0.037842
-0.014648
0.025024
0.0039673
-0.030823
0
0.054016
0.05127
0.035095
0.073853
0.12238
0.10742
0.082397
0.11871
0.16571
0.14679
0.10956
0.12207
0.14008
0.10223
0.054016
0.058289
0.059204
0.0048828
-0.039063
-0.011902
0.018616
-0.012817
-0.048828
-0.025024
-0.0024414
-0.035095
-0.063782
-0.031433
-0.0057983
-0.038147
-0.065918
-0.032654
-0.011597
-0.047302
-0.074158
-0.035706
-0.0073242
-0.03418
-0.054016
-0.014648
0.0082397
-0.0082397
0.024414
0.16205
0.3421
0.52155
0.75562
0.98633
1.0233
0.77515
0.34149
-0.091553
-0.40466
-0.51208
-0.354
-0.066528
0.112
0.12085
0.085449
0.10345
0.10956
0.077515
0.069885
0.1181
0.13489
0.10071
0.091248
0.13855
0.1532
0.11993
0.11414
0.1651
0.17822
0.14404
0.14069
0.19684
0.21759
0.19043
0.19104
0.24506
0.26154
0.23712
0.24597
0.3067
0.32715
0.30457
0.31677
0.37537
0.38971
0.3595
0.36499
0.41351
0.41107
0.36285
0.35065
0.37811
0.35187
0.28015
0.2475
0.25787
0.21667
0.13336
0.093689
0.10162
0.066528
0.00061035
-0.018921
0.0054932
-0.015869
-0.064087
-0.063171
-0.022278
-0.033569
-0.076599
-0.07019
-0.02655
-0.036926
-0.075989
-0.065308
-0.019836
-0.028687
-0.065918
-0.052795
-0.0067139
-0.014954
-0.049133
-0.033569
0.010376
-0.0030518
-0.042114
-0.027771
0.012207
-0.0033569
-0.039063
-0.020752
0.020447
0.0012207
-0.040894
-0.02594
0.012207
-0.0079346
-0.047913
-0.034485
-0.0015259
-0.02533
-0.064087
-0.047302
-0.014038
-0.035706
-0.06897
-0.046997
-0.016174
-0.042725
-0.078125
-0.053711
-0.021667
-0.049438
-0.082397
-0.054016
-0.020142
-0.049438
-0.084839
-0.053406
-0.0094604
-0.019226
-0.030823
0.014648
0.054932
0.030212
0.0024414
0.047302
0.096436
0.07782
0.040894
0.051575
0.062256
0.025635
-0.010376
-0.00030518
-0.010986
-0.077209
-0.12085
-0.088501
-0.064697
-0.10162
-0.13184
-0.10223
-0.086365
-0.12848
-0.15717
-0.11932
-0.09491
-0.12726
-0.14832
-0.112
-0.096741
-0.13641
-0.15839
-0.11749
-0.097656
-0.13123
-0.1474
-0.10376
-0.07782
-0.07782
-0.023193
0.14435
0.35706
0.59601
0.849
1.012
0.91278
0.52704
0.021362
-0.39276
-0.63293
-0.62836
-0.39764
-0.11322
0.018311
-0.012207
-0.058289
-0.033264
-0.018311
-0.045166
-0.049438
-0.0039673
0.0076294
-0.023804
-0.025635
0.022888
0.030823
-0.0030518
-0.00091553
0.054932
0.067749
0.036316
0.038147
0.090332
0.10132
0.070801
0.080566
0.13947
0.1535
0.12878
0.1416
0.20233
0.21759
0.19562
0.2124
0.27069
0.27832
0.24597
0.25085
0.29022
0.27313
0.2182
0.20844
0.23621
0.20447
0.13397
0.10498
0.11353
0.068665
-0.0085449
-0.029297
-0.0088501
-0.038147
-0.09552
-0.10101
-0.06897
-0.08728
-0.13153
-0.12207
-0.082092
-0.094604
-0.13184
-0.1181
-0.075989
-0.089417
-0.1239
-0.10529
-0.063477
-0.076904
-0.10986
-0.088196
-0.046387
-0.063782
-0.098877
-0.07843
-0.037842
-0.055237
-0.089417
-0.064392
-0.023499
-0.042419
-0.078125
-0.057068
-0.019226
-0.038757
-0.070801
-0.047302
-0.015869
-0.044556
-0.080261
-0.054016
-0.01709
-0.041504
-0.076294
-0.050659
-0.014954
-0.029907
-0.047302
-0.0021362
0.047607
0.03479
0.015564
0.05127
0.090027
0.075378
0.054321
0.082397
0.09613
0.050354
0.012512
0.032043
0.033875
-0.031433
-0.089417
-0.072632
-0.054626
-0.091858
-0.12299
-0.088806
-0.066223
-0.098877
-0.12604
-0.091248
-0.072021
-0.11047
-0.13733
-0.1001
-0.075989
-0.10925
-0.13275
-0.095825
-0.075073
-0.10498
-0.12177
-0.081482
-0.065002
-0.097961
-0.092163
0.0042725
0.12451
0.27161
0.53528
0.88226
1.0684
0.98785
0.71014
0.32745
-0.13031
-0.52521
-0.63629
-0.42511
-0.16083
-0.024719
0.018616
0.041199
0.019531
-0.028992
-0.031738
0.021362
0.034485
0.0018311
0.0030518
0.055847
0.064392
0.026245
0.022583
0.072327
0.079956
0.046387
0.051575
0.10925
0.1236
0.093689
0.10101
0.15839
0.16785
0.1358
0.14374
0.2066
0.22308
0.19592
0.20752
0.26672
0.27924
0.24689
0.2533
0.30304
0.29907
0.24933
0.23468
0.26154
0.2356
0.16907
0.14557
0.16022
0.12115
0.04425
0.014954
0.028992
-0.0067139
-0.071716
-0.082703
-0.050354
-0.067749
-0.11292
-0.10468
-0.061035
-0.075378
-0.12238
-0.11414
-0.068054
-0.076904
-0.11475
-0.10071
-0.055542
-0.064697
-0.099182
-0.082397
-0.041199
-0.058594
-0.096741
-0.076599
-0.030212
-0.040588
-0.073853
-0.05249
-0.013428
-0.036011
-0.073547
-0.049438
-0.0048828
-0.021667
-0.06073
-0.039978
-0.0018311
-0.024109
-0.061951
-0.038757
0.0027466
-0.011597
-0.036621
0.0039673
0.058289
0.050659
0.027466
0.06134
0.10406
0.093689
0.076904
0.112
0.13702
0.091858
0.046387
0.068665
0.08606
0.032349
-0.029602
-0.020752
-0.0030518
-0.036926
-0.068054
-0.036621
-0.010376
-0.046082
-0.080872
-0.05127
-0.025635
-0.055237
-0.081177
-0.047302
-0.027466
-0.063782
-0.086975
-0.04425
-0.016174
-0.050049
-0.076294
-0.037231
-0.013733
-0.047607
-0.06012
0.019836
0.1236
0.23926
0.45013
0.79498
1.0556
1.0748
0.88989
0.57037
0.12054
-0.34454
-0.5899
-0.48492
-0.22858
-0.046387
0.041199
0.090027
0.074768
0.016785
-0.00030518
0.050659
0.070801
0.041199
0.035706
0.084229
0.096436
0.059204
0.055542
0.1123
0.12939
0.094299
0.088806
0.14099
0.15717
0.12543
0.12634
0.1828
0.2005
0.1712
0.17517
0.23499
0.2533
0.22888
0.23834
0.29785
0.31403
0.28687
0.29602
0.34821
0.34729
0.30029
0.28839
0.31982
0.2951
0.22552
0.19562
0.21149
0.17365
0.093689
0.060425
0.075378
0.042725
-0.02655
-0.047302
-0.020142
-0.036926
-0.083008
-0.080566
-0.039063
-0.05249
-0.097351
-0.089417
-0.042725
-0.053406
-0.095215
-0.084534
-0.036316
-0.04364
-0.082703
-0.06958
-0.022583
-0.032654
-0.071106
-0.057068
-0.012207
-0.022583
-0.055542
-0.0354
0.0091553
-0.0057983
-0.042419
-0.023193
0.017395
-0.0048828
-0.045471
-0.026245
0.014954
-0.005188
-0.045471
-0.025635
0.015259
0.0033569
-0.018005
0.025635
0.083008
0.074768
0.049438
0.083008
0.12604
0.112
0.088806
0.12024
0.14801
0.10345
0.053406
0.070801
0.089417
0.0354
-0.029602
-0.026245
-0.0097656
-0.046692
-0.081787
-0.05249
-0.022583
-0.056458
-0.091248
-0.060425
-0.032654
-0.065002
-0.094604
-0.06134
-0.035706
-0.072021
-0.10223
-0.062866
-0.032043
-0.062866
-0.088806
-0.050964
-0.025024
-0.058594
-0.074158
0.0054932
0.11169
0.21271
0.38788
0.68481
0.95428
1.0281
0.89844
0.60852
0.14862
-0.33875
-0.60699
-0.52399
-0.26611
-0.066833
0.03479
0.093689
0.085754
0.029297
0.0097656
0.057983
0.077515
0.044861
0.039063
0.093384
0.11108
0.074768
0.065308
0.11688
0.13489
0.10101
0.097656
0.1535
0.1712
0.13794
0.13702
0.19653
0.2179
0.1886
0.19196
0.25299
0.27344
0.24597
0.25452
0.31891
0.33966
0.31342
0.31921
0.37201
0.37537
0.32806
0.31677
0.35126
0.33142
0.26489
0.23651
0.25269
0.21545
0.13245
0.091858
0.10162
0.065613
-0.005188
-0.028076
-0.0030518
-0.025024
-0.079346
-0.083923
-0.045471
-0.058899
-0.10315
-0.094299
-0.04425
-0.052795
-0.098267
-0.090942
-0.040894
-0.045166
-0.083618
-0.071716
-0.023193
-0.030212
-0.069275
-0.055542
-0.0073242
-0.014038
-0.048218
-0.031433
0.013733
0.0012207
-0.037231
-0.020447
0.021667
0.0021362
-0.036926
-0.0177
0.028381
0.011902
-0.028992
-0.011292
0.030212
0.013123
-0.022278
0.005188
0.058289
0.059204
0.046997
0.08728
0.13153
0.10834
0.075073
0.11078
0.15686
0.12817
0.075684
0.084229
0.10895
0.072327
0.015259
0.012512
0.016479
-0.031738
-0.077515
-0.050964
-0.015869
-0.04303
-0.080261
-0.054932
-0.027771
-0.056458
-0.084839
-0.050354
-0.019836
-0.05127
-0.079651
-0.039978
-0.0057983
-0.036621
-0.066833
-0.030823
-0.00061035
-0.030823
-0.056152
-0.017395
0.027466
0.05127
0.12573
0.3241
0.56061
0.77972
0.94879
1.0083
0.81879
0.3717
-0.13153
-0.4364
-0.51117
-0.39001
-0.16357
0.052795
0.12909
0.073242
0.021667
0.052795
0.07782
0.050049
0.035095
0.078735
0.097961
0.064697
0.054016
0.10071
0.11749
0.080872
0.068054
0.11749
0.13641
0.10529
0.1001
0.15381
0.17151
0.13672
0.13214
0.18921
0.21057
0.18188
0.18311
0.24231
0.2655
0.2417
0.25238
0.31738
0.33661
0.29968
0.29114
0.33203
0.32928
0.27557
0.25238
0.2774
0.25513
0.18341
0.14313
0.15045
0.112
0.03479
-0.00061035
0.017395
-0.0057983
-0.065308
-0.080261
-0.04364
-0.051575
-0.097046
-0.098877
-0.054626
-0.059814
-0.10193
-0.099182
-0.050049
-0.050659
-0.090027
-0.085754
-0.040894
-0.046082
-0.084229
-0.07782
-0.03479
-0.04303
-0.083313
-0.072327
-0.027161
-0.0354
-0.072327
-0.059204
-0.013733
-0.024414
-0.061951
-0.047913
-0.0054932
-0.022583
-0.065613
-0.053101
-0.0097656
-0.026245
-0.068665
-0.057678
-0.018311
-0.035706
-0.076904
-0.063477
-0.02594
-0.040894
-0.072632
-0.046387
0.0012207
-0.0091553
-0.029297
0.014038
0.073547
0.066223
0.033569
0.059509
0.10742
0.099487
0.070801
0.087891
0.10437
0.06134
0.011292
0.016174
0.022278
-0.036316
-0.094604
-0.078735
-0.047913
-0.075073
-0.11139
-0.089722
-0.065002
-0.095825
-0.12787
-0.098877
-0.072327
-0.10345
-0.13428
-0.10376
-0.075684
-0.10468
-0.1297
-0.092163
-0.063171
-0.093689
-0.11963
-0.083313
-0.053101
-0.065002
-0.036316
0.091553
0.26215
0.43152
0.66315
0.90759
0.96527
0.72723
0.28931
-0.15625
-0.48187
-0.60699
-0.46661
-0.17975
0.0085449
0.02594
-0.0091553
0.0048828
0.012207
-0.021973
-0.033264
0.014954
0.0354
0.0012207
-0.010681
0.038147
0.058289
0.023499
0.014038
0.06897
0.095215
0.067139
0.059814
0.10956
0.12939
0.10284
0.10437
0.16174
0.18402
0.15686
0.16174
0.22278
0.24536
0.21942
0.22461
0.28595
0.30762
0.28046
0.28107
0.32928
0.33142
0.28442
0.26764
0.29633
0.27435
0.20477
0.16876
0.17975
0.14404
0.066223
0.030518
0.042725
0.0097656
-0.058594
-0.078125
-0.044861
-0.057068
-0.10773
-0.11261
-0.072021
-0.079041
-0.11963
-0.11566
-0.06897
-0.075073
-0.11353
-0.1059
-0.059509
-0.066223
-0.10254
-0.088501
-0.038147
-0.046387
-0.08606
-0.073242
-0.024719
-0.032043
-0.07019
-0.057373
-0.010071
-0.020752
-0.06073
-0.049744
-0.007019
-0.020142
-0.059814
-0.048218
-0.0085449
-0.022278
-0.057068
-0.039063
-0.0027466
-0.027161
-0.06897
-0.049438
-0.007019
-0.02594
-0.068054
-0.050964
-0.012207
-0.02655
-0.051575
-0.014038
0.042725
0.039368
0.018311
0.049438
0.090027
0.075684
0.056763
0.09613
0.13123
0.091858
0.039063
0.051575
0.069275
0.020142
-0.04303
-0.043945
-0.031433
-0.067444
-0.10162
-0.072937
-0.046692
-0.081787
-0.11841
-0.091248
-0.064087
-0.093079
-0.12024
-0.085144
-0.057068
-0.090027
-0.11932
-0.085449
-0.06012
-0.092773
-0.12054
-0.083313
-0.054626
-0.084229
-0.1062
-0.052185
0.022888
0.079651
0.20386
0.45044
0.73364
0.90637
0.91705
0.74799
0.35034
-0.16693
-0.53253
-0.58167
-0.40436
-0.19684
-0.046082
0.052185
0.053101
-0.011902
-0.036926
0.016479
0.043335
0.0091553
-0.0079346
0.035706
0.055542
0.027161
0.022888
0.075378
0.092773
0.059204
0.052795
0.10559
0.12207
0.090027
0.088501
0.14404
0.16357
0.13367
0.13519
0.19257
0.2121
0.18677
0.19562
0.25909
0.28076
0.25787
0.26886
0.32837
0.33875
0.29633
0.28625
0.3241
0.31464
0.25757
0.23346
0.25177
0.21667
0.13519
0.093689
0.10223
0.066223
-0.0076294
-0.036011
-0.013428
-0.032959
-0.08728
-0.09552
-0.061035
-0.075684
-0.12238
-0.11902
-0.073853
-0.081177
-0.12329
-0.11658
-0.07019
-0.077209
-0.1181
-0.10834
-0.059814
-0.064697
-0.10284
-0.091248
-0.045776
-0.056152
-0.09613
-0.085144
-0.040283
-0.048523
-0.082092
-0.065613
-0.02533
-0.046082
-0.088501
-0.072937
-0.030518
-0.047607
-0.088806
-0.074463
-0.037231
-0.059509
-0.10193
-0.084229
-0.044861
-0.063477
-0.10132
-0.081787
-0.046082
-0.067139
-0.097961
-0.062256
-0.0064087
-0.0094604
-0.02594
0.010376
0.050964
0.029602
0.0057983
0.05127
0.095825
0.065002
0.012512
0.023193
0.044861
0.0021362
-0.056152
-0.057373
-0.051575
-0.09613
-0.13672
-0.10834
-0.07843
-0.10895
-0.14526
-0.11902
-0.094299
-0.12787
-0.15961
-0.12787
-0.1004
-0.13031
-0.15656
-0.12085
-0.095215
-0.12939
-0.15625
-0.12085
-0.097351
-0.13
-0.15289
-0.10468
-0.047607
-0.015869
0.072937
0.29327
0.57861
0.82336
0.95154
0.91003
0.59509
0.066528
-0.41656
-0.62988
-0.58044
-0.38666
-0.17456
-0.0088501
0.026855
-0.037537
-0.07782
-0.038452
-0.01709
-0.046082
-0.053101
-0.0012207
0.019531
-0.013428
-0.022888
0.026245
0.041809
0.0064087
-0.00091553
0.049438
0.067139
0.037537
0.037537
0.091858
0.10803
0.076294
0.079041
0.14221
0.16693
0.14252
0.14801
0.20294
0.21942
0.19348
0.20294
0.26062
0.26794
0.22552
0.21698
0.25696
0.24902
0.19104
0.1651
0.18219
0.15137
0.07843
0.044556
0.056763
0.024719
-0.04425
-0.067444
-0.047607
-0.073853
-0.13214
-0.13794
-0.09613
-0.10529
-0.15015
-0.14862
-0.10468
-0.10651
-0.14099
-0.1297
-0.085449
-0.096741
-0.13702
-0.12421
-0.074768
-0.081177
-0.12024
-0.10895
-0.062866
-0.06958
-0.10559
-0.093994
-0.054321
-0.06897
-0.10406
-0.081177
-0.03479
-0.050659
-0.094299
-0.081177
-0.037842
-0.05127
-0.092773
-0.082703
-0.050049
-0.069885
-0.10559
-0.080261
-0.03418
-0.041504
-0.061035
-0.020752
0.033569
0.021667
-0.010071
0.015869
0.063477
0.054016
0.025024
0.043335
0.06012
0.019226
-0.028381
-0.021973
-0.019531
-0.079041
-0.13763
-0.11902
-0.089417
-0.11871
-0.15533
-0.13214
-0.10651
-0.13702
-0.16724
-0.13428
-0.10498
-0.13519
-0.16846
-0.13763
-0.11292
-0.14526
-0.17395
-0.13794
-0.10956
-0.13947
-0.16663
-0.12848
-0.10223
-0.12085
-0.10254
0.015259
0.1825
0.38177
0.67841
0.97412
1.0538
0.83954
0.43823
0.013123
-0.38696
-0.64514
-0.60852
-0.33203
-0.093689
-0.024414
-0.040588
-0.029602
-0.027771
-0.06073
-0.069275
-0.021667
-0.00091553
-0.032959
-0.043335
0.0057983
0.024414
-0.012207
-0.023193
0.030212
0.050964
0.016174
0.0024414
0.053101
0.075378
0.050659
0.044556
0.092468
0.11017
0.085754
0.09552
0.15961
0.18127
0.15076
0.15015
0.20813
0.22858
0.20233
0.19836
0.24231
0.23926
0.18463
0.15381
0.16724
0.13794
0.071716
0.040894
0.060425
0.030518
-0.041504
-0.076294
-0.061035
-0.083923
-0.14038
-0.15228
-0.12238
-0.13641
-0.17853
-0.17181
-0.12299
-0.1358
-0.18494
-0.18066
-0.13214
-0.13611
-0.16785
-0.14801
-0.088806
-0.096741
-0.14923
-0.14008
-0.098267
-0.11017
-0.15717
-0.14648
-0.087585
-0.085144
-0.12146
-0.11292
-0.072327
-0.079651
-0.11169
-0.095215
-0.054932
-0.06958
-0.10498
-0.077209
-0.015869
-0.0177
-0.042725
-0.026245
0.012817
0.0027466
-0.013428
0.038452
0.09491
0.064392
-0.0030518
-0.0091553
0.024109
0.0073242
-0.037537
-0.049133
-0.054321
-0.10193
-0.14252
-0.11627
-0.083313
-0.11902
-0.16205
-0.14282
-0.099182
-0.10712
-0.13397
-0.11627
-0.10468
-0.14435
-0.17395
-0.13397
-0.090637
-0.10803
-0.13245
-0.10437
-0.078735
-0.11078
-0.13458
-0.094604
-0.050964
-0.047607
0.007019
0.20416
0.49622
0.77972
0.94696
0.95917
0.76691
0.38116
-0.063477
-0.40741
-0.59143
-0.55481
-0.33875
-0.080872
0.054932
0.022278
-0.037537
-0.023499
0.0042725
-0.013428
-0.021973
0.010681
0.020142
-0.011597
-0.011292
0.05188
0.06897
0.014954
-0.0094604
0.048523
0.098267
0.082092
0.074463
0.1181
0.13367
0.10101
0.096741
0.14954
0.17181
0.14008
0.13977
0.20752
0.24536
0.22736
0.22797
0.26917
0.26978
0.224
0.21454
0.24719
0.23376
0.17273
0.14618
0.16968
0.13855
0.065613
0.028381
0.040894
0.0042725
-0.074768
-0.10742
-0.084534
-0.10315
-0.15869
-0.17059
-0.12238
-0.12024
-0.16022
-0.16571
-0.12543
-0.1239
-0.16235
-0.1593
-0.10437
-0.10345
-0.14313
-0.14954
-0.11688
-0.12177
-0.14923
-0.12634
-0.069885
-0.075378
-0.12573
-0.12024
-0.067444
-0.058594
-0.087585
-0.074158
-0.025635
-0.02655
-0.050964
-0.021057
0.043945
0.054321
0.02533
0.039673
0.08667
0.082397
0.055847
0.065308
0.092468
0.060425
0.012512
0.0091553
0.016174
-0.036926
-0.1001
-0.093079
-0.057373
-0.073853
-0.1123
-0.1001
-0.072327
-0.099487
-0.13794
-0.12024
-0.091858
-0.10986
-0.13428
-0.1059
-0.073547
-0.10406
-0.14313
-0.12085
-0.090332
-0.11414
-0.14191
-0.11047
-0.073242
-0.093079
-0.10529
-0.022278
0.11505
0.271
0.49988
0.82031
1.0306
0.9845
0.74036
0.401
-0.0091553
-0.42175
-0.63324
-0.50934
-0.23621
-0.050659
0.01709
0.042419
0.032349
-0.013123
-0.032654
0.0073242
0.033569
0.0039673
-0.012512
0.031433
0.064697
0.04425
0.028076
0.066833
0.090332
0.066528
0.05249
0.091858
0.11383
0.091248
0.085754
0.13672
0.16541
0.14496
0.14069
0.19318
0.22217
0.20172
0.19958
0.25085
0.27649
0.25085
0.24292
0.28381
0.29327
0.2478
0.21851
0.23895
0.22461
0.16205
0.1236
0.13458
0.11353
0.047302
0.0094604
0.024109
0.0045776
-0.057373
-0.087585
-0.060425
-0.062561
-0.10193
-0.11169
-0.074768
-0.074158
-0.11169
-0.11536
-0.072327
-0.068054
-0.10162
-0.10193
-0.057983
-0.053711
-0.08606
-0.083618
-0.041199
-0.041199
-0.072937
-0.067139
-0.021362
-0.024109
-0.06073
-0.057373
-0.010986
-0.012817
-0.048523
-0.047607
-0.0076294
-0.010681
-0.045471
-0.04303
-0.0097656
-0.022888
-0.059814
-0.05127
-0.0088501
-0.013428
-0.042725
-0.021667
0.031738
0.040283
0.024109
0.05188
0.10193
0.097351
0.070496
0.091248
0.13062
0.11169
0.065613
0.066528
0.089417
0.053711
-0.0079346
-0.022278
-0.013428
-0.048218
-0.091553
-0.075989
-0.036621
-0.053406
-0.091553
-0.081482
-0.053101
-0.071106
-0.10223
-0.084229
-0.05249
-0.071106
-0.10071
-0.078125
-0.046387
-0.067139
-0.097351
-0.074768
-0.044861
-0.065613
-0.090942
-0.058899
-0.0027466
0.041809
0.13336
0.34637
0.61768
0.85327
0.98328
0.98206
0.7724
0.32806
-0.17365
-0.49652
-0.55969
-0.40558
-0.17059
0.032654
0.10376
0.05127
-0.0021362
0.024719
0.058899
0.041504
0.02594
0.063782
0.090637
0.063477
0.046082
0.086365
0.11444
0.090332
0.075684
0.11749
0.14404
0.12146
0.1123
0.1593
0.18677
0.16571
0.16144
0.21423
0.24445
0.22034
0.21362
0.26398
0.29419
0.27679
0.27557
0.32562
0.34515
0.31189
0.2951
0.32959
0.33112
0.28107
0.24658
0.26154
0.2417
0.17151
0.12421
0.12695
0.098877
0.031128
-0.0054932
0.011902
-0.0030518
-0.058289
-0.07782
-0.040894
-0.037842
-0.076599
-0.084534
-0.044861
-0.040894
-0.077209
-0.081482
-0.038757
-0.036011
-0.06958
-0.066833
-0.020142
-0.016174
-0.052185
-0.05127
-0.0045776
0.00061035
-0.030212
-0.026245
0.018616
0.0177
-0.018311
-0.014343
0.029297
0.026245
-0.011597
-0.010986
0.029602
0.025635
-0.0097656
-0.0064087
0.028992
0.018921
-0.016479
-0.0024414
0.048523
0.053101
0.03479
0.063171
0.12054
0.12177
0.093689
0.11017
0.16083
0.15839
0.12146
0.12054
0.13947
0.11017
0.06012
0.050659
0.057373
0.013733
-0.038452
-0.032959
-0.0045776
-0.028687
-0.066223
-0.049438
-0.013428
-0.033264
-0.070801
-0.054626
-0.021057
-0.039673
-0.072937
-0.055237
-0.024719
-0.044556
-0.074768
-0.050659
-0.01709
-0.036621
-0.066528
-0.042725
-0.0091553
-0.019226
-0.005188
0.10468
0.27008
0.4422
0.65277
0.90881
1.0336
0.89325
0.53894
0.098267
-0.29968
-0.54871
-0.52429
-0.25696
-0.0012207
0.086365
0.069885
0.06958
0.073547
0.045471
0.028381
0.067444
0.09552
0.071411
0.053101
0.089111
0.11536
0.091553
0.076294
0.11597
0.14404
0.12268
0.11169
0.15564
0.1828
0.16296
0.15656
0.20538
0.23621
0.21698
0.21301
0.26489
0.29419
0.27496
0.27222
0.32532
0.35553
0.33142
0.3183
0.35461
0.3653
0.32715
0.30304
0.32288
0.30792
0.24414
0.19623
0.19531
0.16541
0.093384
0.048828
0.054626
0.032349
-0.031433
-0.063477
-0.041809
-0.046997
-0.088806
-0.10162
-0.065613
-0.062866
-0.099487
-0.10773
-0.069275
-0.065918
-0.1001
-0.10132
-0.058289
-0.054932
-0.090637
-0.092163
-0.048218
-0.04425
-0.078125
-0.076904
-0.032959
-0.029297
-0.063477
-0.063171
-0.021362
-0.021973
-0.055542
-0.053711
-0.014343
-0.019531
-0.057068
-0.056458
-0.018921
-0.024109
-0.059509
-0.055542
-0.018921
-0.029907
-0.070801
-0.069275
-0.03479
-0.045166
-0.080566
-0.071411
-0.032959
-0.04303
-0.075073
-0.054626
0.00061035
0.011902
-0.0024414
0.024109
0.068665
0.061035
0.036621
0.064087
0.11078
0.092773
0.044861
0.04364
0.068665
0.038452
-0.018616
-0.035706
-0.031433
-0.068665
-0.10895
-0.094299
-0.061951
-0.083618
-0.12177
-0.10712
-0.078735
-0.097961
-0.12878
-0.10773
-0.078125
-0.10071
-0.13214
-0.10895
-0.079346
-0.10193
-0.13214
-0.10895
-0.079346
-0.10193
-0.12817
-0.095215
-0.038147
0.0073242
0.093384
0.29419
0.54321
0.76691
0.89203
0.87219
0.61462
0.12787
-0.35767
-0.59998
-0.57373
-0.38086
-0.16296
0.0024414
0.045776
-0.011292
-0.057068
-0.02533
0.0064087
-0.011902
-0.02655
0.010681
0.032959
0.0054932
-0.010681
0.029907
0.055847
0.032654
0.022583
0.066833
0.090942
0.064087
0.054016
0.10162
0.1297
0.10803
0.097656
0.14404
0.17334
0.16083
0.16357
0.21576
0.24261
0.22583
0.2301
0.28198
0.30182
0.27069
0.25726
0.28931
0.28748
0.23621
0.20447
0.22156
0.20355
0.13885
0.093994
0.09552
0.061951
-0.011597
-0.054321
-0.042725
-0.060425
-0.11322
-0.13306
-0.10437
-0.10925
-0.15137
-0.15991
-0.12085
-0.11993
-0.15411
-0.15564
-0.11536
-0.11566
-0.15015
-0.14618
-0.098877
-0.097046
-0.13458
-0.13641
-0.09613
-0.094604
-0.12451
-0.11871
-0.078125
-0.083923
-0.11932
-0.11353
-0.070496
-0.076904
-0.11169
-0.10742
-0.068359
-0.080261
-0.11993
-0.11475
-0.07782
-0.091553
-0.13123
-0.12329
-0.084534
-0.09552
-0.13458
-0.12756
-0.092163
-0.10376
-0.13672
-0.12054
-0.07843
-0.085144
-0.10712
-0.074768
-0.016479
-0.012512
-0.036621
-0.015869
0.02594
0.022278
0.00030518
0.018616
0.040894
0.0039673
-0.045166
-0.042725
-0.03418
-0.08667
-0.15015
-0.14771
-0.12177
-0.14587
-0.18188
-0.16541
-0.14038
-0.16785
-0.20203
-0.17914
-0.15137
-0.17883
-0.21332
-0.18921
-0.15686
-0.17731
-0.20355
-0.17883
-0.15533
-0.18219
-0.20813
-0.17639
-0.14526
-0.16205
-0.15167
-0.048218
0.097656
0.25177
0.46265
0.72906
0.86243
0.7251
0.35706
-0.097351
-0.49866
-0.71991
-0.65552
-0.37811
-0.14771
-0.085449
-0.10651
-0.10101
-0.097961
-0.12665
-0.13855
-0.096436
-0.074768
-0.10468
-0.12238
-0.08606
-0.065613
-0.091248
-0.10071
-0.057373
-0.037231
-0.063171
-0.071106
-0.023804
-0.0015259
-0.027771
-0.037842
0.0045776
0.023804
0.0024414
0.0061035
0.06012
0.083008
0.059204
0.059814
0.11383
0.13947
0.11963
0.1181
0.15839
0.15656
0.10834
0.084839
0.10864
0.09552
0.0354
-0.0039673
-0.00091553
-0.037231
-0.11261
-0.15533
-0.15228
-0.18463
-0.25055
-0.2771
-0.25269
-0.26733
-0.31586
-0.32959
-0.29633
-0.30273
-0.34088
-0.3421
-0.30304
-0.30731
-0.34607
-0.34515
-0.30518
-0.30792
-0.34149
-0.33752
-0.29846
-0.30548
-0.34058
-0.33386
-0.29419
-0.30457
-0.34241
-0.336
-0.29602
-0.30426
-0.33936
-0.33112
-0.29205
-0.30273
-0.33813
-0.3302
-0.29755
-0.31494
-0.35553
-0.34851
-0.31677
-0.33417
-0.36926
-0.35583
-0.32135
-0.34088
-0.37628
-0.3537
-0.30212
-0.29602
-0.30853
-0.27527
-0.23193
-0.24536
-0.27435
-0.2478
-0.20386
-0.21912
-0.26062
-0.2597
-0.24628
-0.28351
-0.33539
-0.34271
-0.34363
-0.3894
-0.43304
-0.41473
-0.38574
-0.40955
-0.4422
-0.42297
-0.39886
-0.42572
-0.45715
-0.4361
-0.41046
-0.43396
-0.4599
-0.4361
-0.41412
-0.43823
-0.45929
-0.42755
-0.40558
-0.43549
-0.45746
-0.4126
-0.34363
-0.28992
-0.18066
0.04425
0.3241
0.5304
0.59357
0.46906
0.094299
-0.43976
-0.85846
-0.96497
-0.8078
-0.57709
-0.39917
-0.29266
-0.28687
-0.34821
-0.37872
-0.33905
-0.3125
-0.33539
-0.34515
-0.30518
-0.28503
-0.31036
-0.32104
-0.28259
-0.26703
-0.29327
-0.29938
-0.25391
-0.23254
-0.25391
-0.25482
-0.2066
-0.18494
-0.2063
-0.20599
-0.15656
-0.13397
-0.14954
-0.13916
-0.080872
-0.055847
-0.075378
-0.070801
-0.021667
-0.0082397
-0.039368
-0.050659
-0.018616
-0.022583
-0.068359
-0.091248
-0.076294
-0.10071
-0.16479
-0.20233
-0.20111
-0.23682
-0.30334
-0.33295
-0.31708
-0.33539
-0.38574
-0.39978
-0.36926
-0.37262
-0.40497
-0.40497
-0.3714
-0.38025
-0.41443
-0.4071
-0.36316
-0.36285
-0.39246
-0.38483
-0.34332
-0.34515
-0.37506
-0.3656
-0.32288
-0.32501
-0.35339
-0.34485
-0.3067
-0.3125
-0.34363
-0.33478
-0.29968
-0.30914
-0.34149
-0.32959
-0.29205
-0.30182
-0.33173
-0.32043
-0.28717
-0.30243
-0.33508
-0.32043
-0.28198
-0.28717
-0.30518
-0.27313
-0.21912
-0.21271
-0.22827
-0.20691
-0.17334
-0.17792
-0.18616
-0.15259
-0.12238
-0.15381
-0.19897
-0.19409
-0.18402
-0.23041
-0.28961
-0.29297
-0.2774
-0.29938
-0.32562
-0.30243
-0.27832
-0.30334
-0.33356
-0.31189
-0.28534
-0.30548
-0.32776
-0.29877
-0.27039
-0.29083
-0.3125
-0.2832
-0.25696
-0.27893
-0.30212
-0.27374
-0.24963
-0.26947
-0.26703
-0.18066
-0.054321
0.098572
0.35187
0.68268
0.88165
0.8075
0.48401
0.038147
-0.42297
-0.75073
-0.78156
-0.53436
-0.27222
-0.15686
-0.14435
-0.13702
-0.14496
-0.17517
-0.18127
-0.13702
-0.11414
-0.13428
-0.14038
-0.10071
-0.083008
-0.10651
-0.11139
-0.068665
-0.049133
-0.071716
-0.073547
-0.028687
-0.0076294
-0.029907
-0.031433
0.013428
0.033875
0.01709
0.022278
0.073242
0.09491
0.075989
0.079346
0.12817
0.14771
0.12787
0.12878
0.16754
0.16876
0.12878
0.11139
0.13062
0.11017
0.05127
0.018616
0.02533
-0.0057983
-0.071106
-0.10406
-0.093079
-0.11597
-0.16907
-0.18463
-0.15747
-0.16449
-0.20264
-0.21027
-0.18066
-0.18555
-0.21301
-0.20538
-0.16602
-0.17303
-0.2063
-0.19958
-0.15625
-0.159
-0.19135
-0.18585
-0.14404
-0.14648
-0.17639
-0.16846
-0.12787
-0.12848
-0.15686
-0.14801
-0.11292
-0.11902
-0.14862
-0.13855
-0.10651
-0.11871
-0.15228
-0.14374
-0.11078
-0.11841
-0.14099
-0.11597
-0.067444
-0.062256
-0.075684
-0.048828
-0.0079346
-0.013428
-0.027161
0.0057983
0.042725
0.014343
-0.041199
-0.042725
-0.024109
-0.057373
-0.11475
-0.12909
-0.11993
-0.14618
-0.17731
-0.16449
-0.14404
-0.16846
-0.19531
-0.17181
-0.14526
-0.16937
-0.2002
-0.1767
-0.14771
-0.16937
-0.19958
-0.18097
-0.15503
-0.17212
-0.19073
-0.16174
-0.13702
-0.16266
-0.18219
-0.12695
-0.038757
0.058899
0.24261
0.5722
0.88409
0.98938
0.87463
0.59296
0.15961
-0.336
-0.66895
-0.66467
-0.43152
-0.20996
-0.083313
-0.022278
-0.028992
-0.082092
-0.1062
-0.067139
-0.039368
-0.061646
-0.074463
-0.036011
-0.011597
-0.032349
-0.043945
-0.0064087
0.014954
-0.0061035
-0.013123
0.030823
0.055237
0.036621
0.032349
0.076294
0.10101
0.08667
0.08667
0.13123
0.15167
0.13367
0.13947
0.19012
0.21301
0.19287
0.18982
0.22552
0.22766
0.18982
0.17365
0.19958
0.18707
0.13062
0.093079
0.097656
0.07019
0.0067139
-0.030518
-0.021362
-0.044556
-0.096741
-0.11749
-0.095215
-0.10651
-0.14923
-0.15656
-0.12085
-0.12207
-0.15961
-0.16479
-0.12726
-0.12299
-0.14771
-0.1416
-0.10254
-0.10498
-0.13702
-0.13245
-0.090637
-0.093689
-0.12512
-0.12024
-0.078735
-0.078125
-0.10651
-0.098877
-0.059509
-0.063782
-0.09552
-0.086975
-0.047913
-0.052185
-0.080566
-0.067139
-0.022888
-0.016174
-0.028687
-0.0024414
0.041809
0.036621
0.014954
0.04425
0.097046
0.090027
0.046082
0.038147
0.055542
0.029602
-0.024414
-0.045471
-0.048218
-0.08606
-0.12421
-0.11047
-0.081177
-0.1001
-0.13336
-0.11993
-0.094299
-0.1178
-0.15106
-0.13306
-0.10315
-0.11993
-0.14465
-0.12177
-0.093689
-0.11719
-0.14618
-0.1239
-0.094299
-0.11475
-0.14343
-0.12024
-0.071411
-0.030823
0.053711
0.25635
0.53833
0.8139
0.98755
1.0022
0.7724
0.30121
-0.2182
-0.55267
-0.62134
-0.47119
-0.23682
-0.036011
0.034485
-0.014343
-0.063782
-0.038147
-0.0079346
-0.024414
-0.037842
-0.00061035
0.02594
0.0036621
-0.0097656
0.027771
0.051575
0.027161
0.014954
0.056152
0.083618
0.065308
0.058899
0.10437
0.13214
0.11383
0.10864
0.1532
0.17792
0.16144
0.16418
0.21637
0.24414
0.22522
0.22552
0.27344
0.29053
0.25848
0.24078
0.26794
0.2652
0.21698
0.1889
0.20477
0.18372
0.11292
0.065002
0.065613
0.039368
-0.022278
-0.056763
-0.039673
-0.050049
-0.095825
-0.1123
-0.082092
-0.083008
-0.11719
-0.12085
-0.083923
-0.082703
-0.11566
-0.11475
-0.070496
-0.065308
-0.09613
-0.09613
-0.057983
-0.056763
-0.085449
-0.079041
-0.037231
-0.038757
-0.072021
-0.065308
-0.022583
-0.024414
-0.056763
-0.049744
-0.0079346
-0.013428
-0.046997
-0.037231
0.012817
0.021362
0.0057983
0.032349
0.088501
0.092468
0.065613
0.079956
0.12695
0.1239
0.089417
0.08728
0.10498
0.077515
0.02533
0.010681
0.012817
-0.033569
-0.086975
-0.082397
-0.050354
-0.069275
-0.10773
-0.099182
-0.06958
-0.087585
-0.11963
-0.10223
-0.067749
-0.084534
-0.11536
-0.098877
-0.06897
-0.08728
-0.11475
-0.092163
-0.060425
-0.080872
-0.10956
-0.083008
-0.043945
-0.040894
-0.010376
0.11597
0.31586
0.5246
0.76538
0.97382
0.99121
0.7193
0.25085
-0.20294
-0.50018
-0.58289
-0.42236
-0.14404
0.042725
0.058899
0.011292
0.012817
0.029297
0.010071
-0.0045776
0.035706
0.067749
0.046692
0.025635
0.057373
0.084229
0.065613
0.055237
0.09491
0.12268
0.10406
0.09613
0.13885
0.16663
0.14526
0.13702
0.18372
0.21423
0.19958
0.19897
0.2533
0.28839
0.27374
0.27069
0.3183
0.34271
0.31738
0.30212
0.33386
0.3418
0.30151
0.27649
0.29572
0.28198
0.21637
0.16754
0.16846
0.1413
0.072021
0.026855
0.037231
0.024109
-0.028687
-0.053711
-0.02655
-0.027771
-0.067444
-0.081177
-0.04425
-0.039978
-0.075378
-0.081482
-0.041504
-0.036926
-0.071411
-0.074768
-0.031128
-0.024414
-0.055542
-0.055237
-0.0091553
-0.0018311
-0.03418
-0.03479
0.0064087
0.0097656
-0.021973
-0.022888
0.015869
0.014343
-0.018311
-0.014648
0.026245
0.023193
-0.012207
-0.011902
0.024414
0.01709
-0.0177
-0.005188
0.049744
0.065002
0.05127
0.074463
0.12543
0.12634
0.096741
0.1123
0.16174
0.159
0.11658
0.10529
0.11932
0.091858
0.039978
0.026855
0.032349
-0.0091553
-0.061035
-0.053101
-0.013733
-0.024719
-0.061035
-0.052185
-0.020142
-0.037842
-0.073242
-0.06073
-0.027161
-0.040588
-0.070496
-0.053101
-0.021057
-0.040588
-0.072021
-0.052185
-0.0177
-0.035706
-0.065308
-0.040894
0.0076294
0.040588
0.10315
0.27466
0.51056
0.7431
0.92377
0.99304
0.83099
0.40009
-0.11841
-0.45319
-0.52795
-0.39642
-0.17181
0.032654
0.12085
0.080566
0.024414
0.039368
0.067749
0.049744
0.031128
0.066833
0.099182
0.079956
0.06134
0.095215
0.12238
0.10071
0.083618
0.12115
0.14984
0.13306
0.12451
0.17029
0.20111
0.18036
0.16846
0.21118
0.24231
0.22705
0.224
0.2771
0.31403
0.3006
0.29663
0.34119
0.36407
0.33661
0.31891
0.34973
0.35278
0.30457
0.27039
0.28717
0.2771
0.21576
0.16754
0.16815
0.14343
0.075684
0.030823
0.041199
0.029297
-0.021057
-0.044556
-0.01709
-0.0177
-0.058899
-0.072327
-0.035095
-0.028687
-0.062866
-0.06958
-0.028076
-0.021667
-0.052795
-0.054016
-0.010376
-0.0036621
-0.038147
-0.039673
0.0048828
0.014038
-0.018311
-0.021057
0.018921
0.023193
-0.005188
-0.0024414
0.036926
0.035706
0.0027466
0.0045776
0.042114
0.033569
-0.0042725
-0.00091553
0.040894
0.036316
-0.0027466
-0.0045776
0.031738
0.029602
0.0045776
0.02655
0.085144
0.095215
0.075073
0.090027
0.13519
0.13336
0.10925
0.12634
0.16388
0.14221
0.090027
0.084839
0.10437
0.068665
0.0048828
-0.010681
0.0088501
-0.014343
-0.053406
-0.04425
-0.011902
-0.031738
-0.071106
-0.061646
-0.028992
-0.045166
-0.079346
-0.065002
-0.032654
-0.048828
-0.079041
-0.058899
-0.024719
-0.042725
-0.073853
-0.053711
-0.019226
-0.036316
-0.065918
-0.03418
0.040588
0.10529
0.21667
0.4364
0.71808
0.92468
0.97565
0.84137
0.47974
-0.041809
-0.45807
-0.56793
-0.40558
-0.17822
-0.015564
0.079346
0.091858
0.035095
-0.0036621
0.030823
0.067139
0.049438
0.028381
0.062256
0.091553
0.071411
0.054016
0.090637
0.12024
0.10071
0.087585
0.12848
0.15747
0.13611
0.12238
0.16388
0.19043
0.16785
0.15839
0.20844
0.24567
0.23163
0.22797
0.27771
0.30731
0.28687
0.27985
0.32623
0.34821
0.31708
0.29663
0.32562
0.32684
0.27588
0.23987
0.25177
0.2298
0.15717
0.10468
0.10834
0.086365
0.019531
-0.023193
-0.0094604
-0.021667
-0.071411
-0.093079
-0.061646
-0.06012
-0.10071
-0.11322
-0.076294
-0.073242
-0.10803
-0.1123
-0.070801
-0.068359
-0.10742
-0.11322
-0.068665
-0.06134
-0.093994
-0.094604
-0.050354
-0.049438
-0.088806
-0.092773
-0.050659
-0.047913
-0.083923
-0.08606
-0.047607
-0.050659
-0.088806
-0.089111
-0.049438
-0.057068
-0.098267
-0.1004
-0.064392
-0.076294
-0.11902
-0.11871
-0.079651
-0.087891
-0.12909
-0.13
-0.096741
-0.10864
-0.14221
-0.12421
-0.071106
-0.065613
-0.084534
-0.057068
-0.0061035
-0.018921
-0.059509
-0.040588
0.013733
0.0036621
-0.047607
-0.056152
-0.030823
-0.06012
-0.1239
-0.14587
-0.14038
-0.17944
-0.22888
-0.21912
-0.18341
-0.20569
-0.25024
-0.23834
-0.20386
-0.22552
-0.26672
-0.25269
-0.21973
-0.24475
-0.28717
-0.27283
-0.23926
-0.26154
-0.29846
-0.27802
-0.24323
-0.26581
-0.3006
-0.28046
-0.24902
-0.25391
-0.22888
-0.099182
0.098572
0.29388
0.52063
0.72083
0.72601
0.42358
-0.077209
-0.52368
-0.77637
-0.80994
-0.62958
-0.36499
-0.20386
-0.20691
-0.26337
-0.25665
-0.23438
-0.25787
-0.28076
-0.24536
-0.21698
-0.242
-0.26184
-0.22339
-0.19867
-0.22888
-0.25024
-0.20905
-0.18066
-0.20752
-0.22491
-0.17914
-0.14893
-0.17456
-0.19257
-0.14893
-0.11841
-0.13519
-0.13855
-0.08728
-0.058899
-0.080872
-0.084534
-0.029602
-0.0039673
-0.035706
-0.052795
-0.015259
-0.0076294
-0.054016
-0.083313
-0.057983
-0.06958
-0.13763
-0.18951
-0.18951
-0.2182
-0.29266
-0.33966
-0.32898
-0.34607
-0.40253
-0.42755
-0.39764
-0.40131
-0.44922
-0.4657
-0.42877
-0.42755
-0.46844
-0.47485
-0.42938
-0.42389
-0.46509
-0.47424
-0.4303
-0.4248
-0.46051
-0.46478
-0.41931
-0.41321
-0.448
-0.44922
-0.40649
-0.40527
-0.44006
-0.43701
-0.39246
-0.39612
-0.43518
-0.43427
-0.39185
-0.39612
-0.4364
-0.43335
-0.39063
-0.3949
-0.43335
-0.43427
-0.40039
-0.41229
-0.44952
-0.43945
-0.39948
-0.41351
-0.45593
-0.44708
-0.40527
-0.41534
-0.4538
-0.44403
-0.40436
-0.41565
-0.45349
-0.44006
-0.39825
-0.41077
-0.44739
-0.43457
-0.39703
-0.40985
-0.43884
-0.41107
-0.35461
-0.34882
-0.36255
-0.32928
-0.28503
-0.29938
-0.32196
-0.28778
-0.24261
-0.26672
-0.31494
-0.3067
-0.28015
-0.31403
-0.36774
-0.37231
-0.36163
-0.39764
-0.43274
-0.40466
-0.36896
-0.39154
-0.4245
-0.40253
-0.37445
-0.40192
-0.43182
-0.4007
-0.36621
-0.3891
-0.41748
-0.38605
-0.35278
-0.37415
-0.40009
-0.37018
-0.34424
-0.37109
-0.3952
-0.35492
-0.29663
-0.25513
-0.16571
0.04303
0.30212
0.52612
0.64941
0.62195
0.33722
-0.16846
-0.63904
-0.83862
-0.77179
-0.5722
-0.37079
-0.22278
-0.1889
-0.24506
-0.28046
-0.2417
-0.21515
-0.23804
-0.24475
-0.19745
-0.17487
-0.20447
-0.21606
-0.16815
-0.14465
-0.16907
-0.17517
-0.12695
-0.10651
-0.13245
-0.13306
-0.079041
-0.053711
-0.077515
-0.077209
-0.020447
0.0057983
-0.012817
-0.0048828
0.052795
0.076904
0.055542
0.062866
0.11963
0.1355
0.10193
0.093689
0.13275
0.13245
0.085449
0.066223
0.090027
0.067444
-0.0024414
-0.041809
-0.036621
-0.069275
-0.13855
-0.16937
-0.15106
-0.17212
-0.22491
-0.23712
-0.20325
-0.21393
-0.26031
-0.26733
-0.23132
-0.23926
-0.27771
-0.27191
-0.22308
-0.22095
-0.25391
-0.24628
-0.20142
-0.20233
-0.23315
-0.21973
-0.17059
-0.17151
-0.20386
-0.19287
-0.15289
-0.16479
-0.20203
-0.1889
-0.14221
-0.15015
-0.18646
-0.17334
-0.1297
-0.13763
-0.17426
-0.16327
-0.12573
-0.14008
-0.17609
-0.16479
-0.13214
-0.15076
-0.1828
-0.16052
-0.11902
-0.1358
-0.16907
-0.14038
-0.090027
-0.088806
-0.098877
-0.054016
0.00091553
-0.012817
-0.046387
-0.018005
0.033264
0.025024
-0.0097656
-0.0021362
0.013428
-0.022888
-0.074768
-0.075989
-0.076599
-0.12665
-0.17151
-0.14771
-0.11536
-0.14343
-0.18158
-0.16022
-0.13275
-0.15717
-0.18555
-0.1593
-0.13336
-0.1593
-0.1825
-0.14893
-0.1239
-0.15259
-0.17517
-0.13763
-0.11017
-0.13824
-0.15961
-0.12146
-0.089722
-0.094299
-0.053406
0.091553
0.28656
0.4892
0.72998
0.9317
0.91339
0.59143
0.097351
-0.32562
-0.55939
-0.56274
-0.35339
-0.087585
0.046692
0.026245
-0.021667
-0.0045776
0.010071
-0.015869
-0.023193
0.022888
0.041809
0.010376
-0.00061035
0.045471
0.065613
0.035706
0.025024
0.066223
0.080566
0.05127
0.048828
0.099792
0.11871
0.094604
0.098267
0.1532
0.17181
0.14465
0.14832
0.20599
0.22827
0.20752
0.21759
0.27802
0.29663
0.26886
0.26581
0.3064
0.30426
0.25909
0.24536
0.27252
0.25116
0.18372
0.15045
0.16022
0.12573
0.05127
0.016174
0.030823
0.007019
-0.048828
-0.064697
-0.037842
-0.054321
-0.099182
-0.099182
-0.057068
-0.063477
-0.10376
-0.1004
-0.058594
-0.061951
-0.09491
-0.081482
-0.035095
-0.042725
-0.082703
-0.073853
-0.028687
-0.031433
-0.062256
-0.04425
0.0033569
-0.0045776
-0.04303
-0.03418
0.0039673
-0.0082397
-0.042725
-0.02594
0.015869
0.0027466
-0.031128
-0.014648
0.024414
0.0073242
-0.029602
-0.012207
0.025635
0.0079346
-0.028076
-0.0073242
0.038757
0.031738
0.011292
0.043335
0.090332
0.080566
0.053406
0.081177
0.12878
0.12512
0.1001
0.11505
0.12604
0.083313
0.0354
0.041504
0.046082
-0.0091553
-0.063477
-0.047913
-0.019531
-0.044556
-0.075989
-0.050354
-0.024414
-0.054626
-0.08667
-0.058594
-0.030823
-0.056763
-0.083313
-0.05188
-0.024719
-0.05188
-0.075073
-0.039978
-0.015259
-0.046997
-0.072632
-0.03479
-0.0012207
-0.0030518
0.033569
0.16663
0.3479
0.54382
0.79468
1.019
1.0242
0.71381
0.21545
-0.23132
-0.49896
-0.52948
-0.32837
-0.050659
0.099792
0.089722
0.047913
0.068054
0.081787
0.052185
0.043335
0.093384
0.11688
0.08606
0.072327
0.11627
0.13489
0.10712
0.10162
0.15289
0.17151
0.14038
0.13367
0.18433
0.2063
0.17975
0.17914
0.23315
0.25543
0.23407
0.242
0.3006
0.32196
0.29999
0.30945
0.36957
0.38696
0.35614
0.35675
0.40161
0.40009
0.35095
0.33142
0.35797
0.33508
0.26703
0.23193
0.24139
0.20599
0.12726
0.088806
0.10132
0.073853
0.012512
-0.0048828
0.024719
0.011597
-0.036011
-0.039978
0.00030518
-0.0039673
-0.041809
-0.035706
0.005188
-0.0024414
-0.041809
-0.032654
0.013733
0.0067139
-0.032043
-0.021057
0.027466
0.021973
-0.017395
-0.010986
0.030518
0.022888
-0.010986
0
0.038147
0.023499
-0.014954
0.0021362
0.045471
0.032959
-0.0045776
0.0076294
0.045471
0.028076
-0.011902
0
0.03479
0.017395
-0.0177
0.0057983
0.05188
0.046082
0.02594
0.061646
0.11322
0.1059
0.079651
0.10712
0.15198
0.14404
0.1178
0.1355
0.15137
0.10803
0.055237
0.054626
0.057068
0.0045776
-0.046082
-0.029297
-0.0027466
-0.032043
-0.065308
-0.040283
-0.013733
-0.04303
-0.076599
-0.050659
-0.025024
-0.056152
-0.085754
-0.052795
-0.022888
-0.050354
-0.07843
-0.047607
-0.021362
-0.049744
-0.073242
-0.035706
-0.0042725
-0.0067139
0.031433
0.18005
0.39063
0.62469
0.87433
1.0492
0.97504
0.58746
0.06073
-0.35309
-0.55054
-0.51361
-0.29358
-0.039063
0.083923
0.057678
0.010376
0.032959
0.052795
0.029297
0.019226
0.062561
0.081177
0.05249
0.043335
0.088196
0.10254
0.069885
0.064697
0.11597
0.1355
0.10559
0.10071
0.15259
0.1709
0.14099
0.13977
0.19379
0.21545
0.19043
0.19379
0.25055
0.27283
0.25085
0.25909
0.31677
0.33417
0.30334
0.29877
0.33569
0.32959
0.28015
0.26276
0.28839
0.26215
0.19073
0.15533
0.16785
0.1358
0.064697
0.032654
0.049744
0.025635
-0.032959
-0.047302
-0.014648
-0.023499
-0.064697
-0.064392
-0.02533
-0.033264
-0.072632
-0.063477
-0.016174
-0.025024
-0.066528
-0.058289
-0.0079346
-0.010071
-0.047913
-0.040283
0.005188
0.00091553
-0.036316
-0.027771
0.011292
-0.00030518
-0.037537
-0.022888
0.022583
0.015564
-0.019531
-0.0082397
0.028992
0.011597
-0.02594
-0.010681
0.029602
0.018616
-0.010986
0.016479
0.06897
0.067139
0.045166
0.074158
0.11841
0.11108
0.092468
0.12817
0.16388
0.12573
0.068359
0.074158
0.090027
0.040283
-0.027771
-0.030823
-0.0094604
-0.039368
-0.07843
-0.056152
-0.02655
-0.054932
-0.093689
-0.073242
-0.043945
-0.070496
-0.1062
-0.081177
-0.048523
-0.06958
-0.092163
-0.06134
-0.03418
-0.067444
-0.1004
-0.069275
-0.038452
-0.066833
-0.090637
-0.026855
0.070496
0.17273
0.36713
0.71564
1.0248
1.0968
0.91797
0.56274
0.087585
-0.38147
-0.6192
-0.51361
-0.25513
-0.073853
0.0088501
0.058899
0.055542
0.0039673
-0.016785
0.033569
0.066833
0.041504
0.02533
0.066528
0.086975
0.057373
0.044861
0.093384
0.11688
0.090637
0.084839
0.1355
0.15625
0.12512
0.11902
0.17456
0.19836
0.17151
0.16876
0.22461
0.24994
0.22705
0.23041
0.28931
0.31189
0.28503
0.2829
0.33203
0.33875
0.2951
0.2774
0.30853
0.29694
0.2356
0.20294
0.21759
0.18677
0.11139
0.071106
0.086975
0.064697
0.0027466
-0.020447
0.010071
0.0030518
-0.04425
-0.054932
-0.019531
-0.02594
-0.064392
-0.058289
-0.0076294
-0.007019
-0.045471
-0.042419
0.0054932
0.0030518
-0.03479
-0.026245
0.026245
0.027161
-0.0088501
-0.00061035
0.045776
0.041809
0.0061035
0.014954
0.057678
0.046387
0.0045776
0.013733
0.053406
0.038757
-0.0042725
0.005188
0.047913
0.039978
0.012207
0.042114
0.10254
0.10468
0.078735
0.10101
0.1474
0.1416
0.11536
0.13794
0.17303
0.13947
0.084229
0.086365
0.10162
0.052795
-0.017395
-0.023499
-0.00030518
-0.025635
-0.064392
-0.045166
-0.013428
-0.040588
-0.079346
-0.055847
-0.018921
-0.042419
-0.077209
-0.053406
-0.018921
-0.041504
-0.071411
-0.040588
-0.0057983
-0.031738
-0.065613
-0.037537
-0.0061035
-0.031433
-0.049133
0.02655
0.14282
0.25574
0.42908
0.72449
0.98541
1.0269
0.82825
0.46265
-0.0039673
-0.42511
-0.59723
-0.43762
-0.15991
0.0076294
0.061646
0.089722
0.082092
0.032654
0.0097656
0.056152
0.08606
0.058594
0.039368
0.083008
0.10986
0.080566
0.062866
0.10773
0.13672
0.11017
0.097046
0.14252
0.16815
0.14587
0.14374
0.19867
0.22644
0.19989
0.19653
0.25421
0.28198
0.26062
0.26428
0.32837
0.35706
0.32959
0.32532
0.37903
0.39215
0.34576
0.31586
0.33997
0.33325
0.28076
0.25116
0.2652
0.23193
0.1532
0.11322
0.13092
0.10406
0.030823
0
0.032043
0.028076
-0.02533
-0.042419
-0.00091553
0.0042725
-0.034485
-0.041199
-0.00061035
-0.0027466
-0.042419
-0.041199
0.0067139
0.0073242
-0.032043
-0.030212
0.016174
0.014648
-0.024109
-0.015564
0.036316
0.03479
-0.0064087
-0.0024414
0.045166
0.040894
-0.0018311
0.00030518
0.04303
0.03418
-0.010071
-0.005188
0.039673
0.037231
0.0054932
0.023804
0.082092
0.090332
0.06958
0.093689
0.14374
0.13611
0.10406
0.12665
0.17456
0.15533
0.097961
0.088806
0.10834
0.068359
0.00030518
-0.015259
0.00030518
-0.028687
-0.067139
-0.045166
-0.0042725
-0.02594
-0.069885
-0.057068
-0.023193
-0.04364
-0.076904
-0.053406
-0.015869
-0.038757
-0.075989
-0.054016
-0.017395
-0.037231
-0.068665
-0.04364
-0.0097656
-0.034485
-0.062561
-0.017395
0.065308
0.12665
0.23743
0.47546
0.77606
0.97504
0.99731
0.83252
0.44067
-0.084839
-0.4776
-0.5481
-0.36865
-0.1593
-0.020752
0.071106
0.085754
0.029907
-0.0064087
0.03479
0.07019
0.042114
0.018616
0.059204
0.089417
0.06134
0.039063
0.082092
0.11292
0.086975
0.072632
0.12268
0.15442
0.12604
0.10742
0.15259
0.18433
0.16449
0.16052
0.21576
0.25024
0.23041
0.22705
0.2832
0.31281
0.28931
0.28229
0.32959
0.34698
0.31128
0.2948
0.32898
0.32959
0.27588
0.24445
0.26398
0.23987
0.16083
0.10986
0.12268
0.10468
0.037537
-0.0033569
0.012207
-0.0012207
-0.053406
-0.06897
-0.029297
-0.031738
-0.080261
-0.093079
-0.048218
-0.041199
-0.079956
-0.08667
-0.04364
-0.039673
-0.077515
-0.07782
-0.031128
-0.027771
-0.065308
-0.063477
-0.017395
-0.017395
-0.055542
-0.048828
0.005188
0.0097656
-0.026855
-0.024109
0.018921
0.0085449
-0.038757
-0.036926
0.010071
0.0067139
-0.032043
-0.022278
0.033569
0.045776
0.027771
0.055237
0.11017
0.10223
0.061035
0.075989
0.13153
0.12665
0.079041
0.072937
0.097351
0.068665
0.0042725
-0.013733
-0.0018311
-0.03418
-0.083313
-0.079956
-0.048218
-0.067444
-0.10468
-0.089722
-0.056458
-0.080261
-0.12115
-0.10712
-0.075073
-0.097656
-0.13397
-0.11108
-0.071411
-0.088501
-0.12115
-0.10071
-0.068359
-0.090332
-0.12146
-0.09552
-0.046692
-0.024719
0.026855
0.19745
0.44464
0.69641
0.88074
0.93781
0.74463
0.27771
-0.24323
-0.55145
-0.58807
-0.43823
-0.23071
-0.047913
0.021362
-0.025635
-0.076599
-0.05127
-0.016479
-0.036926
-0.056458
-0.017395
0.014648
-0.0091553
-0.028687
0.0097656
0.039063
0.015564
0
0.043945
0.074463
0.05127
0.039063
0.085449
0.11414
0.089722
0.082092
0.13428
0.16785
0.14893
0.14465
0.19928
0.23163
0.21027
0.20599
0.25818
0.28076
0.24872
0.23346
0.27496
0.28381
0.23499
0.20111
0.21729
0.19775
0.1236
0.075378
0.08606
0.061646
-0.013428
-0.057983
-0.035095
-0.041504
-0.097046
-0.12634
-0.095215
-0.09552
-0.14343
-0.15808
-0.11688
-0.11017
-0.14923
-0.15717
-0.11139
-0.1059
-0.1413
-0.14069
-0.087891
-0.083923
-0.12817
-0.13397
-0.084534
-0.076599
-0.11414
-0.11444
-0.067139
-0.065308
-0.10803
-0.11047
-0.062561
-0.06073
-0.10254
-0.10529
-0.061951
-0.064392
-0.10559
-0.10223
-0.05188
-0.045166
-0.06897
-0.043335
0.024719
0.033569
-0.0054932
-0.0021362
0.047913
0.052795
0.015869
0.0091553
0.031433
0.007019
-0.045166
-0.058899
-0.05127
-0.096741
-0.15594
-0.15259
-0.11688
-0.13824
-0.18555
-0.17914
-0.14252
-0.1593
-0.19989
-0.18707
-0.14984
-0.16785
-0.2063
-0.19379
-0.15839
-0.18097
-0.21881
-0.19958
-0.16113
-0.17853
-0.21332
-0.19318
-0.15442
-0.15869
-0.14435
-0.03418
0.14984
0.34607
0.58899
0.82977
0.89691
0.65369
0.18097
-0.28748
-0.60028
-0.70129
-0.5658
-0.29999
-0.10834
-0.079041
-0.11963
-0.11353
-0.093994
-0.1181
-0.13763
-0.099487
-0.068665
-0.09552
-0.12024
-0.081787
-0.049438
-0.072937
-0.090027
-0.041504
-0.0057983
-0.032959
-0.056152
-0.013733
0.021057
-0.0021362
-0.017395
0.03479
0.073853
0.05249
0.039673
0.093079
0.13519
0.11871
0.10712
0.15503
0.18433
0.15808
0.14313
0.18341
0.19562
0.14893
0.11627
0.1413
0.13641
0.070801
0.019226
0.028687
0.011292
-0.06012
-0.10956
-0.093689
-0.10071
-0.15533
-0.18494
-0.1535
-0.14954
-0.19501
-0.21301
-0.17303
-0.16418
-0.20233
-0.2124
-0.16693
-0.15991
-0.19958
-0.20782
-0.1593
-0.14862
-0.1825
-0.18433
-0.13397
-0.12573
-0.16266
-0.16602
-0.1181
-0.11353
-0.15228
-0.15411
-0.10773
-0.1062
-0.14648
-0.14862
-0.10315
-0.10834
-0.15411
-0.15656
-0.1062
-0.097961
-0.12817
-0.11627
-0.058289
-0.048828
-0.07843
-0.069885
-0.018921
-0.012817
-0.042419
-0.036621
-0.005188
-0.031128
-0.086975
-0.099792
-0.083313
-0.12482
-0.19287
-0.19958
-0.1651
-0.1825
-0.22949
-0.22461
-0.18341
-0.19714
-0.23987
-0.23071
-0.18677
-0.19501
-0.23071
-0.22034
-0.18433
-0.19989
-0.23468
-0.21271
-0.16907
-0.18524
-0.22369
-0.20599
-0.16602
-0.17731
-0.18677
-0.1059
0.045776
0.22003
0.46936
0.79224
0.99091
0.89264
0.51788
0.040894
-0.39703
-0.68726
-0.70129
-0.45685
-0.19348
-0.089111
-0.096436
-0.093384
-0.082703
-0.11047
-0.13153
-0.090637
-0.049744
-0.07019
-0.096741
-0.061646
-0.023804
-0.043335
-0.068054
-0.034485
-0.00091553
-0.018311
-0.032043
0.012207
0.046997
0.024414
0.0076294
0.054932
0.094604
0.076294
0.063782
0.11566
0.15869
0.14435
0.13458
0.1828
0.2182
0.19592
0.17975
0.21851
0.23468
0.19196
0.15808
0.18219
0.1825
0.12329
0.073853
0.081482
0.065002
-0.005188
-0.056152
-0.04364
-0.049438
-0.10254
-0.13123
-0.097961
-0.091248
-0.13489
-0.15533
-0.11322
-0.098572
-0.13336
-0.14618
-0.10315
-0.092163
-0.1297
-0.14038
-0.092468
-0.079651
-0.11597
-0.12268
-0.072937
-0.057373
-0.092163
-0.099182
-0.050049
-0.037537
-0.072021
-0.081177
-0.039673
-0.03479
-0.067749
-0.065613
-0.012817
-0.0015259
-0.029297
-0.013733
0.052185
0.069275
0.039368
0.043945
0.098267
0.11322
0.084839
0.08667
0.12085
0.1004
0.04364
0.027466
0.048218
0.013123
-0.055847
-0.069885
-0.034485
-0.04425
-0.086975
-0.085144
-0.047913
-0.063782
-0.10956
-0.10315
-0.057373
-0.067139
-0.10773
-0.09613
-0.048828
-0.058594
-0.1004
-0.093079
-0.050659
-0.06073
-0.097351
-0.083008
-0.040588
-0.050049
-0.065002
0.010376
0.15381
0.30792
0.51178
0.8139
1.0397
0.99792
0.68268
0.23712
-0.20081
-0.52155
-0.58777
-0.36713
-0.087891
0.038147
0.036621
0.034485
0.045776
0.021362
-0.00030518
0.036621
0.080261
0.06073
0.030518
0.061035
0.1004
0.081787
0.056152
0.094604
0.13824
0.12146
0.09613
0.13519
0.17853
0.16418
0.14252
0.18188
0.22369
0.20996
0.19653
0.24231
0.28381
0.26855
0.25665
0.30609
0.34515
0.32379
0.30396
0.34363
0.36865
0.3299
0.29205
0.31403
0.31982
0.26184
0.20599
0.2063
0.19043
0.11902
0.062256
0.072632
0.070496
0.015869
-0.024719
-0.0024414
0.0027466
-0.041199
-0.064392
-0.024414
-0.0079346
-0.046692
-0.066223
-0.023193
-0.0042725
-0.039368
-0.056458
-0.013733
0.0039673
-0.028076
-0.038757
0.0067139
0.021057
-0.014343
-0.023499
0.022583
0.03418
-0.0036621
-0.012512
0.03479
0.045471
0.0073242
0.0064087
0.067139
0.096436
0.079346
0.090942
0.15015
0.16357
0.12665
0.12817
0.18707
0.19745
0.15137
0.12756
0.15106
0.13458
0.071106
0.037231
0.047302
0.0177
-0.038147
-0.045166
0.00030518
-0.0033569
-0.049133
-0.055237
-0.015564
-0.023499
-0.068054
-0.06897
-0.02533
-0.029297
-0.06897
-0.062866
-0.018311
-0.026855
-0.070801
-0.064697
-0.0177
-0.024414
-0.065308
-0.057068
-0.0054932
0.013733
0.036926
0.1535
0.37231
0.60577
0.84106
1.0153
1.0043
0.68634
0.16937
-0.27985
-0.50171
-0.50201
-0.32074
-0.072021
0.096741
0.10132
0.0354
0.031738
0.072632
0.064697
0.03479
0.056458
0.099792
0.085449
0.053406
0.078125
0.12024
0.10681
0.07782
0.10681
0.15045
0.13672
0.11353
0.14954
0.19501
0.17853
0.15137
0.18585
0.23132
0.22034
0.20142
0.24506
0.29266
0.2829
0.2652
0.30853
0.35126
0.33234
0.30273
0.32745
0.34912
0.3125
0.27191
0.2829
0.27924
0.21271
0.14832
0.14771
0.14038
0.075684
0.016785
0.022278
0.021362
-0.033569
-0.075378
-0.050354
-0.034485
-0.073242
-0.10315
-0.067139
-0.047607
-0.082397
-0.10284
-0.06073
-0.036621
-0.072937
-0.095825
-0.05249
-0.02533
-0.052795
-0.066528
-0.025024
-0.007019
-0.044556
-0.062256
-0.018616
-0.00091553
-0.037537
-0.056152
-0.014648
-0.00030518
-0.03479
-0.048218
-0.0061035
0.0030518
-0.037537
-0.049133
0.0018311
0.024109
-0.00030518
0.005188
0.067749
0.090942
0.061035
0.055847
0.10712
0.1239
0.087585
0.070496
0.093689
0.075989
0.018921
-0.0067139
0.011292
-0.019531
-0.087891
-0.10895
-0.069275
-0.069275
-0.11139
-0.11627
-0.074158
-0.079346
-0.12665
-0.13092
-0.085449
-0.08667
-0.13031
-0.1355
-0.093384
-0.095825
-0.13306
-0.12695
-0.080872
-0.086365
-0.12878
-0.12604
-0.079956
-0.064697
-0.046082
0.063171
0.27374
0.49652
0.72937
0.92377
0.95612
0.68481
0.18677
-0.28168
-0.5368
-0.5658
-0.39276
-0.13641
0.045776
0.059204
-0.0064087
-0.014954
0.024414
0.015259
-0.019836
-0.0015259
0.042114
0.031128
0
0.024414
0.070496
0.058289
0.02594
0.051575
0.096436
0.084839
0.056152
0.088501
0.13672
0.12634
0.10498
0.14069
0.18799
0.17273
0.14832
0.18951
0.24353
0.23712
0.21667
0.25421
0.29663
0.27679
0.24475
0.26917
0.2948
0.25818
0.21027
0.21851
0.22491
0.1712
0.11078
0.10651
0.095825
0.027466
-0.036011
-0.032349
-0.029602
-0.079956
-0.12482
-0.10101
-0.081177
-0.11749
-0.14954
-0.11871
-0.09613
-0.12695
-0.15015
-0.112
-0.086975
-0.11627
-0.13489
-0.09491
-0.075989
-0.11292
-0.13214
-0.084229
-0.055237
-0.08606
-0.10529
-0.062256
-0.041199
-0.073853
-0.088501
-0.035095
0.0021362
-0.0088501
-0.0015259
0.06134
0.085449
0.054626
0.046692
0.10437
0.1239
0.079346
0.047913
0.073853
0.067749
0.0064087
-0.036316
-0.022888
-0.04303
-0.10529
-0.13153
-0.093689
-0.087585
-0.12909
-0.14038
-0.095825
-0.091248
-0.1358
-0.14679
-0.10223
-0.095215
-0.13489
-0.14374
-0.10315
-0.10406
-0.14404
-0.14648
-0.10132
-0.10071
-0.1416
-0.13702
-0.07782
-0.039978
-0.0061035
0.11627
0.35034
0.59631
0.80383
0.92316
0.85724
0.50293
-0.027771
-0.45013
-0.6012
-0.52887
-0.33264
-0.1178
0.021362
0.015869
-0.05188
-0.057373
-0.007019
-0.007019
-0.041809
-0.028687
0.019531
0.014648
-0.020447
-0.0018311
0.047302
0.040283
0.0054932
0.02655
0.076904
0.068054
0.03418
0.056458
0.10925
0.10712
0.079041
0.10651
0.15717
0.15259
0.12878
0.16235
0.21454
0.20874
0.18463
0.21851
0.26794
0.25299
0.21606
0.2301
0.25208
0.21179
0.15625
0.159
0.16785
0.11139
0.042114
0.035095
0.036316
-0.021667
-0.085449
-0.082092
-0.068359
-0.11353
-0.16235
-0.14618
-0.12268
-0.15656
-0.19348
-0.16479
-0.13397
-0.15961
-0.18585
-0.15289
-0.12512
-0.15594
-0.18311
-0.14709
-0.11841
-0.14923
-0.17426
-0.13489
-0.10376
-0.13153
-0.1535
-0.11261
-0.081787
-0.10284
-0.10925
-0.049438
-0.007019
-0.027161
-0.042114
0.0024414
0.031738
0.0064087
-0.011292
0.021973
0.023499
-0.033264
-0.073242
-0.056458
-0.070496
-0.14526
-0.19806
-0.17853
-0.17242
-0.2124
-0.23071
-0.19318
-0.18677
-0.23315
-0.25208
-0.21118
-0.20264
-0.24841
-0.26855
-0.22705
-0.21545
-0.25513
-0.27008
-0.22858
-0.22247
-0.26276
-0.27405
-0.23132
-0.22369
-0.25146
-0.21851
-0.09491
0.036621
0.19257
0.45135
0.75287
0.86182
0.68085
0.28778
-0.17517
-0.58502
-0.78583
-0.67261
-0.38177
-0.19196
-0.15839
-0.16602
-0.14801
-0.16022
-0.19714
-0.18707
-0.13458
-0.13397
-0.17029
-0.16174
-0.11139
-0.11261
-0.14923
-0.13916
-0.089111
-0.089722
-0.12268
-0.1062
-0.050964
-0.049438
-0.081482
-0.063171
-0.010986
-0.0091553
-0.03479
-0.0076294
0.049133
0.050659
0.025024
0.05249
0.10712
0.10162
0.069885
0.089722
0.13031
0.10864
0.060425
0.066528
0.093079
0.054626
-0.013428
-0.029907
-0.024414
-0.075989
-0.14618
-0.15869
-0.14893
-0.18982
-0.24445
-0.23987
-0.21973
-0.25299
-0.2951
-0.27588
-0.24353
-0.26764
-0.30029
-0.27252
-0.23621
-0.25818
-0.28748
-0.25726
-0.22186
-0.24445
-0.26978
-0.2356
-0.20264
-0.23041
-0.26031
-0.22766
-0.19501
-0.22156
-0.2478
-0.21362
-0.18524
-0.21667
-0.24414
-0.20386
-0.16449
-0.1767
-0.18005
-0.12115
-0.076599
-0.099792
-0.12421
-0.085144
-0.050964
-0.071411
-0.09491
-0.072021
-0.072021
-0.12268
-0.16174
-0.14832
-0.16174
-0.22919
-0.26733
-0.23499
-0.22064
-0.26093
-0.28564
-0.24872
-0.23834
-0.28137
-0.30396
-0.26276
-0.24841
-0.28717
-0.30304
-0.25909
-0.24139
-0.27618
-0.28839
-0.24414
-0.23163
-0.27039
-0.28168
-0.23682
-0.22003
-0.22522
-0.16388
-0.00030518
0.18982
0.39215
0.63782
0.82001
0.74219
0.36499
-0.13428
-0.52216
-0.71442
-0.6723
-0.43976
-0.19012
-0.097046
-0.13672
-0.16846
-0.13977
-0.1355
-0.16449
-0.15472
-0.099487
-0.093994
-0.13092
-0.12695
-0.074463
-0.06897
-0.099487
-0.088806
-0.031738
-0.024109
-0.055847
-0.043945
0.0091553
0.013733
-0.016174
0.00091553
0.061035
0.069885
0.045166
0.065613
0.12299
0.1297
0.10468
0.12787
0.18463
0.18524
0.15137
0.16235
0.2005
0.18005
0.12756
0.12299
0.14587
0.10956
0.042419
0.023804
0.030212
-0.018616
-0.088501
-0.099792
-0.082397
-0.11902
-0.1767
-0.17609
-0.14801
-0.1712
-0.20905
-0.19135
-0.15625
-0.17853
-0.21393
-0.18707
-0.14435
-0.15961
-0.19196
-0.16846
-0.13336
-0.15533
-0.18372
-0.15015
-0.10864
-0.12878
-0.15808
-0.12756
-0.091858
-0.11444
-0.14374
-0.11353
-0.080872
-0.10803
-0.13977
-0.10956
-0.079041
-0.10773
-0.13885
-0.10773
-0.073853
-0.092163
-0.1062
-0.054626
-0.0067139
-0.019531
-0.036926
0.0018311
0.035706
0.020142
0.0039673
0.0354
0.040283
-0.014648
-0.058899
-0.045166
-0.05127
-0.11444
-0.15869
-0.13245
-0.11719
-0.15717
-0.18311
-0.14648
-0.12848
-0.16388
-0.18768
-0.14984
-0.13214
-0.16602
-0.18219
-0.1413
-0.12604
-0.16357
-0.18188
-0.1416
-0.12695
-0.16083
-0.16998
-0.1236
-0.10742
-0.12817
-0.089417
0.049133
0.22034
0.40924
0.67627
0.9256
0.94543
0.65735
0.18341
-0.27039
-0.58594
-0.66498
-0.47638
-0.18677
-0.029907
-0.028381
-0.054016
-0.03418
-0.037842
-0.071106
-0.065918
-0.013123
-0.0061035
-0.041809
-0.039673
0.012817
0.020752
-0.012512
-0.0073242
0.046997
0.055847
0.026245
0.0354
0.088806
0.09491
0.065002
0.078735
0.13397
0.1413
0.11383
0.13275
0.19104
0.19501
0.16693
0.18646
0.24506
0.2478
0.21332
0.22064
0.25909
0.24139
0.19104
0.18677
0.21149
0.17792
0.11322
0.097961
0.11047
0.068054
-0.0018311
-0.018005
-0.0057983
-0.045776
-0.10254
-0.097351
-0.061646
-0.081482
-0.12634
-0.11475
-0.07782
-0.095215
-0.12909
-0.10895
-0.068665
-0.087891
-0.12299
-0.099792
-0.057678
-0.073242
-0.10437
-0.078125
-0.039673
-0.06012
-0.093689
-0.067749
-0.030823
-0.05188
-0.082092
-0.050964
-0.013123
-0.036926
-0.07019
-0.043335
-0.012512
-0.041809
-0.075684
-0.04425
-0.0057983
-0.022888
-0.040894
0.0057983
0.05188
0.037231
0.01709
0.055237
0.093994
0.079956
0.061951
0.093689
0.10376
0.053711
0.0085449
0.020142
0.014038
-0.052795
-0.1059
-0.085449
-0.065002
-0.09491
-0.11597
-0.082092
-0.068665
-0.10864
-0.13336
-0.092468
-0.071716
-0.10864
-0.13306
-0.09491
-0.075073
-0.10712
-0.1236
-0.081177
-0.063782
-0.1004
-0.1181
-0.076599
-0.061035
-0.084839
-0.057678
0.068359
0.23804
0.44464
0.74493
1.0254
1.0724
0.80963
0.35645
-0.10437
-0.4776
-0.63873
-0.50568
-0.21301
-0.019226
0.013123
-0.0036621
0.013733
0.0088501
-0.02533
-0.022278
0.032349
0.044861
0.010376
0.010376
0.062256
0.072937
0.039368
0.039673
0.087891
0.093994
0.059509
0.067139
0.1239
0.13611
0.10712
0.11444
0.16815
0.17578
0.14679
0.16296
0.22064
0.2298
0.20172
0.22064
0.28137
0.28381
0.24292
0.24292
0.2829
0.27161
0.21912
0.20782
0.2298
0.19836
0.13062
0.1062
0.11597
0.076599
0.013428
0.0039673
0.027466
-0.0024414
-0.058899
-0.06073
-0.027771
-0.046082
-0.088501
-0.076599
-0.0354
-0.049133
-0.085754
-0.068665
-0.025635
-0.039368
-0.074768
-0.057068
-0.019836
-0.036316
-0.066528
-0.039368
0.0021362
-0.017395
-0.05249
-0.027161
0.013428
-0.0045776
-0.036621
-0.011597
0.026245
0.0045776
-0.027466
-0.0024414
0.033569
0.012817
-0.012512
0.028992
0.080872
0.072937
0.049438
0.083008
0.12115
0.11078
0.098877
0.13733
0.16022
0.11108
0.060425
0.075684
0.083008
0.025635
-0.03418
-0.027161
-0.016174
-0.056152
-0.08728
-0.054016
-0.033264
-0.072327
-0.10773
-0.079041
-0.057678
-0.090332
-0.11414
-0.076599
-0.054626
-0.090332
-0.11505
-0.078735
-0.058594
-0.093079
-0.11292
-0.069885
-0.047302
-0.081482
-0.09552
-0.022278
0.065918
0.15594
0.34821
0.69183
0.99365
1.0773
0.94391
0.6424
0.18066
-0.31738
-0.60699
-0.55176
-0.31494
-0.11597
-0.00091553
0.062256
0.045471
-0.014343
-0.02594
0.029907
0.049744
0.016174
0.0073242
0.053101
0.063782
0.028992
0.02594
0.078735
0.093384
0.061951
0.063171
0.11627
0.12787
0.096436
0.10101
0.15747
0.17151
0.14252
0.15045
0.20691
0.22095
0.19562
0.20874
0.26581
0.27435
0.242
0.24719
0.29236
0.28351
0.23376
0.22186
0.24872
0.22186
0.15747
0.13611
0.15198
0.11719
0.046692
0.024719
0.041504
0.0088501
-0.050964
-0.057983
-0.027161
-0.048218
-0.098267
-0.093384
-0.050354
-0.056458
-0.089111
-0.072632
-0.030518
-0.046082
-0.084839
-0.067749
-0.021667
-0.034485
-0.072021
-0.05249
-0.0073242
-0.019531
-0.054626
-0.035706
0.0045776
-0.011292
-0.046082
-0.023804
0.015869
-0.0030518
-0.037537
-0.014954
0.021973
0.00061035
-0.032349
-0.0024414
0.043945
0.035706
0.018921
0.062561
0.11261
0.099182
0.075073
0.11169
0.15594
0.13428
0.095215
0.10712
0.11963
0.075989
0.021667
0.021057
0.014954
-0.043335
-0.090027
-0.065308
-0.038452
-0.070496
-0.10406
-0.074463
-0.048828
-0.079651
-0.10895
-0.077209
-0.053101
-0.083618
-0.10864
-0.073547
-0.050964
-0.085754
-0.11047
-0.072632
-0.049744
-0.082397
-0.10468
-0.061646
-0.025635
-0.014343
0.051575
0.2356
0.46295
0.69366
0.9079
1.0272
0.88928
0.47241
-0.036011
-0.39856
-0.55023
-0.48248
-0.25452
-0.010376
0.08667
0.042725
-0.0030518
0.02594
0.043335
0.014343
0.0067139
0.054016
0.068054
0.032654
0.02533
0.075684
0.092468
0.059509
0.055237
0.1059
0.12115
0.090942
0.092773
0.14771
0.16449
0.13641
0.14191
0.19897
0.21362
0.18768
0.19836
0.25909
0.27344
0.24719
0.26001
0.31891
0.32562
0.28442
0.27802
0.31769
0.30762
0.25513
0.23804
0.25879
0.22644
0.1535
0.12085
0.12939
0.088196
0.01709
-0.0039673
0.015869
-0.014648
-0.074158
-0.079651
-0.042725
-0.055847
-0.1004
-0.093689
-0.050964
-0.062866
-0.10468
-0.09552
-0.051575
-0.061951
-0.098572
-0.084534
-0.038147
-0.044556
-0.075989
-0.056152
-0.013733
-0.027466
-0.063171
-0.043335
-0.00091553
-0.015259
-0.05127
-0.030518
0.011292
-0.0054932
-0.041199
-0.023804
0.011597
-0.0067139
-0.0354
-0.0015259
0.049744
0.046997
0.035095
0.077515
0.12115
0.097656
0.067139
0.10498
0.15045
0.1236
0.072021
0.078125
0.092163
0.046082
-0.014648
-0.019226
-0.015564
-0.058289
-0.096436
-0.068665
-0.042419
-0.076599
-0.11139
-0.082703
-0.058289
-0.092773
-0.1239
-0.090027
-0.062866
-0.096436
-0.12695
-0.091248
-0.062561
-0.092773
-0.11963
-0.083618
-0.058289
-0.087891
-0.10834
-0.065002
-0.019531
0.0088501
0.093994
0.30426
0.54596
0.76538
0.91919
0.9494
0.71594
0.22919
-0.27008
-0.52826
-0.53619
-0.37323
-0.15381
0.028992
0.077515
0.018311
-0.022888
0.012512
0.031128
0.00091553
-0.0048828
0.044556
0.06134
0.026855
0.019226
0.069885
0.084229
0.047913
0.04303
0.1001
0.12329
0.095825
0.093384
0.14526
0.1593
0.12878
0.13306
0.19196
0.2124
0.1889
0.19989
0.26367
0.2829
0.25635
0.26367
0.31952
0.32471
0.28351
0.27771
0.32104
0.31555
0.26184
0.23926
0.25787
0.22644
0.1532
0.11932
0.1297
0.093689
0.024109
0.0012207
0.020447
-0.0073242
-0.066833
-0.074768
-0.038757
-0.051575
-0.096436
-0.093689
-0.05249
-0.06134
-0.10071
-0.089417
-0.041199
-0.046082
-0.083618
-0.075073
-0.033875
-0.041809
-0.072937
-0.054016
-0.010376
-0.023193
-0.060425
-0.044861
-0.0045776
-0.019531
-0.054016
-0.033264
0.0076294
-0.011902
-0.051575
-0.03418
0.0054932
-0.013428
-0.05188
-0.035706
-0.0027466
-0.027161
-0.064392
-0.040283
0.0048828
-0.0021362
-0.015869
0.030518
0.083923
0.06958
0.036926
0.065918
0.10864
0.092773
0.059509
0.075073
0.091553
0.047302
-0.0079346
-0.0073242
-0.0048828
-0.058289
-0.10559
-0.085754
-0.061035
-0.091248
-0.1236
-0.093689
-0.070496
-0.10895
-0.14465
-0.11414
-0.089111
-0.12207
-0.15106
-0.11627
-0.091248
-0.12695
-0.15686
-0.12085
-0.093994
-0.12421
-0.15076
-0.11444
-0.08728
-0.088806
-0.039978
0.11444
0.31494
0.52216
0.76782
0.96375
0.91736
0.55481
0.027771
-0.4071
-0.64209
-0.64026
-0.42664
-0.15961
-0.029297
-0.053406
-0.1001
-0.078735
-0.065613
-0.095825
-0.10559
-0.060425
-0.044861
-0.07843
-0.083923
-0.033569
-0.017395
-0.054626
-0.063782
-0.014343
0.0018311
-0.029907
-0.032959
0.019836
0.033875
0.0021362
0.0027466
0.058594
0.075378
0.045471
0.049744
0.10773
0.12787
0.10406
0.11139
0.16357
0.16998
0.13458
0.13245
0.1712
0.15839
0.10132
0.083008
0.10956
0.085754
0.015259
-0.018311
-0.0082397
-0.04364
-0.11444
-0.14099
-0.12482
-0.15289
-0.21149
-0.22125
-0.18921
-0.20935
-0.25879
-0.25574
-0.21179
-0.21942
-0.26154
-0.25482
-0.21179
-0.22156
-0.26062
-0.25024
-0.20905
-0.22156
-0.25818
-0.24139
-0.19684
-0.20844
-0.24384
-0.22614
-0.18616
-0.20538
-0.24475
-0.22675
-0.1886
-0.21027
-0.25238
-0.23376
-0.19226
-0.21088
-0.25208
-0.23773
-0.20325
-0.22614
-0.2652
-0.2475
-0.21515
-0.2356
-0.26001
-0.22308
-0.17242
-0.18127
-0.20142
-0.16296
-0.12177
-0.14069
-0.16327
-0.12543
-0.091858
-0.13336
-0.18829
-0.17853
-0.16418
-0.21393
-0.27527
-0.27527
-0.26337
-0.29938
-0.33142
-0.30487
-0.2829
-0.31616
-0.34546
-0.31342
-0.29144
-0.32593
-0.35614
-0.32257
-0.29694
-0.33051
-0.35675
-0.32257
-0.29968
-0.33112
-0.35767
-0.32471
-0.30304
-0.33112
-0.34363
-0.27832
-0.2002
-0.12756
0.033569
0.33478
0.63477
0.75409
0.66742
0.38666
-0.081482
-0.5838
-0.86792
-0.8078
-0.57007
-0.37689
-0.26886
-0.20996
-0.22583
-0.2832
-0.29388
-0.23773
-0.21851
-0.25391
-0.26337
-0.2124
-0.1944
-0.22766
-0.23651
-0.19196
-0.18097
-0.21271
-0.2124
-0.15808
-0.1413
-0.16968
-0.16357
-0.10925
-0.09491
-0.1236
-0.11566
-0.057983
-0.04303
-0.069275
-0.059204
-0.0015259
0.010681
-0.015564
-0.0054932
0.045471
0.041504
-0.0064087
-0.01709
0.017395
0.0036621
-0.05127
-0.072021
-0.060425
-0.10406
-0.18311
-0.21545
-0.20142
-0.23071
-0.29114
-0.30853
-0.28778
-0.31281
-0.36041
-0.35706
-0.32074
-0.33569
-0.3772
-0.3656
-0.31921
-0.3241
-0.3598
-0.35065
-0.31372
-0.32623
-0.3598
-0.34119
-0.29968
-0.31189
-0.34393
-0.31921
-0.27252
-0.28564
-0.32288
-0.30579
-0.26611
-0.28168
-0.3183
-0.29816
-0.25665
-0.2713
-0.3064
-0.29236
-0.26184
-0.28503
-0.31799
-0.2948
-0.26245
-0.28564
-0.31525
-0.28076
-0.23071
-0.2301
-0.2356
-0.18646
-0.14404
-0.16846
-0.19684
-0.15533
-0.11047
-0.13306
-0.17517
-0.16357
-0.15106
-0.19867
-0.25665
-0.2594
-0.25726
-0.29602
-0.32471
-0.29572
-0.27527
-0.31067
-0.34088
-0.30884
-0.28656
-0.32135
-0.34912
-0.31586
-0.28992
-0.31525
-0.33386
-0.29816
-0.28168
-0.31677
-0.33661
-0.2951
-0.27161
-0.30396
-0.32227
-0.27802
-0.23438
-0.20172
-0.10986
0.10284
0.34637
0.57037
0.71991
0.73273
0.47638
-0.013428
-0.49072
-0.7254
-0.71625
-0.54321
-0.32532
-0.1532
-0.11688
-0.177
-0.20782
-0.1651
-0.14648
-0.1712
-0.17212
-0.12268
-0.11322
-0.14801
-0.14862
-0.093689
-0.079346
-0.11017
-0.10834
-0.05188
-0.035095
-0.063782
-0.060425
-0.0073242
0.007019
-0.019836
-0.011292
0.045166
0.061646
0.042114
0.06012
0.12115
0.13519
0.1123
0.12573
0.17914
0.18158
0.1474
0.1532
0.1944
0.17914
0.12421
0.11047
0.1358
0.10712
0.038147
0.0064087
0.011902
-0.030823
-0.097351
-0.11536
-0.097046
-0.12726
-0.18433
-0.18738
-0.1535
-0.16754
-0.20325
-0.18829
-0.14404
-0.15503
-0.19165
-0.17578
-0.13031
-0.13916
-0.17151
-0.15442
-0.11292
-0.12482
-0.15472
-0.12878
-0.081482
-0.093384
-0.12848
-0.10986
-0.070801
-0.085449
-0.11627
-0.093079
-0.057373
-0.079956
-0.11444
-0.090332
-0.052185
-0.075989
-0.11383
-0.093384
-0.061035
-0.085449
-0.12146
-0.098877
-0.063171
-0.076599
-0.093079
-0.050354
-0.0033569
-0.0088501
-0.021362
0.019226
0.053711
0.03479
0.019226
0.060425
0.08667
0.04425
0.00091553
0.0177
0.022583
-0.036316
-0.095215
-0.08606
-0.073853
-0.10864
-0.13214
-0.097351
-0.078735
-0.11932
-0.14984
-0.11688
-0.096436
-0.13153
-0.15503
-0.11383
-0.087585
-0.1178
-0.13794
-0.098877
-0.079346
-0.11444
-0.13672
-0.099792
-0.080872
-0.10895
-0.10101
-0.0027466
0.10529
0.21332
0.39917
0.70007
0.92133
0.92316
0.70343
0.32318
-0.15015
-0.52399
-0.60608
-0.38452
-0.1297
-0.011902
0.015259
0.033875
0.016785
-0.022583
-0.018921
0.036621
0.047607
0.0073242
-0.00030518
0.046997
0.061951
0.033264
0.033875
0.083313
0.092163
0.059814
0.064697
0.1181
0.12878
0.098267
0.10529
0.16266
0.17822
0.15289
0.16388
0.22003
0.23163
0.20844
0.22766
0.29022
0.30212
0.27313
0.28229
0.32806
0.32196
0.2774
0.27435
0.30701
0.28442
0.22278
0.20142
0.2124
0.16968
0.097656
0.073242
0.082092
0.039368
-0.02594
-0.03418
-0.0088501
-0.038452
-0.092773
-0.090027
-0.054016
-0.06897
-0.10834
-0.093689
-0.051575
-0.063782
-0.098267
-0.081177
-0.042725
-0.059814
-0.09491
-0.073547
-0.032043
-0.046082
-0.07782
-0.052185
-0.010681
-0.028992
-0.065613
-0.044556
-0.007019
-0.02533
-0.057983
-0.03418
0.0021362
-0.019836
-0.055237
-0.03418
-0.0015259
-0.025635
-0.06134
-0.042725
-0.0177
-0.044556
-0.074158
-0.047302
-0.018616
-0.044556
-0.063477
-0.015259
0.033264
0.021973
0.0064087
0.048828
0.083618
0.057678
0.037842
0.084229
0.11993
0.084839
0.039368
0.050049
0.052185
-0.0018311
-0.052185
-0.041504
-0.036926
-0.079041
-0.10437
-0.06897
-0.054016
-0.097961
-0.12726
-0.091858
-0.072632
-0.10834
-0.13214
-0.093689
-0.075073
-0.10956
-0.12726
-0.08728
-0.070801
-0.10468
-0.11688
-0.071106
-0.054016
-0.090942
-0.1001
-0.02655
0.052185
0.12238
0.28442
0.58319
0.88409
1.019
0.94971
0.6662
0.17181
-0.3418
-0.61066
-0.53528
-0.3009
-0.11444
-0.0033569
0.060425
0.041809
-0.018921
-0.028076
0.027161
0.040894
0.0054932
0.00091553
0.048218
0.056458
0.02533
0.030823
0.084229
0.093079
0.057068
0.057678
0.10498
0.112
0.085144
0.098267
0.15137
0.15656
0.12787
0.14587
0.20477
0.21149
0.18311
0.20142
0.26245
0.27039
0.24017
0.25116
0.29846
0.29388
0.25146
0.24963
0.27679
0.24811
0.18951
0.177
0.19287
0.15198
0.083008
0.067444
0.083008
0.041809
-0.022888
-0.032043
-0.0094604
-0.041199
-0.093689
-0.08728
-0.050354
-0.067139
-0.10651
-0.092773
-0.055542
-0.071716
-0.10284
-0.077209
-0.036011
-0.056458
-0.093689
-0.070496
-0.024719
-0.037842
-0.06958
-0.046387
-0.0088501
-0.025024
-0.054016
-0.026245
0.0082397
-0.016479
-0.05249
-0.026855
0.0076294
-0.0177
-0.051575
-0.026855
0.0018311
-0.024414
-0.054932
-0.024109
0.0085449
-0.014343
-0.038452
0.0030518
0.045166
0.033569
0.021057
0.066223
0.10376
0.085449
0.074768
0.12085
0.14435
0.096741
0.050659
0.074158
0.085449
0.029297
-0.029297
-0.023193
-0.016174
-0.054932
-0.080566
-0.047607
-0.032654
-0.073547
-0.098572
-0.062256
-0.047302
-0.089111
-0.11383
-0.071411
-0.047607
-0.081177
-0.10254
-0.067444
-0.054016
-0.089111
-0.10284
-0.058594
-0.04303
-0.082703
-0.096741
-0.027161
0.054626
0.15381
0.36499
0.71777
1.0049
1.0712
0.92194
0.59448
0.11322
-0.37018
-0.61157
-0.51422
-0.27405
-0.093079
0.0094604
0.063171
0.039368
-0.018005
-0.019531
0.036011
0.044861
0.0045776
0.0033569
0.058289
0.073242
0.042419
0.04425
0.092468
0.09491
0.055847
0.06012
0.11627
0.1297
0.10284
0.11078
0.1593
0.16144
0.13275
0.15045
0.20966
0.21667
0.18829
0.21027
0.27252
0.27802
0.24414
0.25299
0.29816
0.28931
0.24139
0.23621
0.26154
0.23071
0.16724
0.15228
0.16846
0.12787
0.058594
0.040588
0.055542
0.021362
-0.0354
-0.037842
-0.014648
-0.045471
-0.092163
-0.077209
-0.035095
-0.050659
-0.089722
-0.072021
-0.029297
-0.043945
-0.079041
-0.059814
-0.021667
-0.036926
-0.071106
-0.050354
-0.012512
-0.028076
-0.053711
-0.023499
0.015869
-0.0057983
-0.039368
-0.013123
0.019531
-0.0076294
-0.042725
-0.014648
0.021362
-0.0045776
-0.036621
-0.0073242
0.030518
0.011292
-0.0094604
0.036316
0.08667
0.075073
0.056458
0.094604
0.13214
0.11719
0.097046
0.13062
0.1474
0.10162
0.058899
0.073242
