0.16724
0.159
0.19226
0.18646
0.15503
0.1709
0.21515
0.20599
0.16571
0.17426
0.21545
0.20447
0.17059
0.1889
0.23132
0.21576
0.177
0.19531
0.24292
0.22736
0.18127
0.18707
0.22797
0.21698
0.18158
0.19409
0.2301
0.21149
0.17151
0.18311
0.21942
0.19989
0.15808
0.16663
0.20233
0.18646
0.15015
0.17181
0.21057
0.19379
0.15747
0.17883
0.22919
0.23193
0.22186
0.26062
0.30151
0.27618
0.24689
0.30762
0.39551
0.40741
0.36652
0.36163
0.3833
0.35797
0.30609
0.28717
0.26611
0.19531
0.13519
0.15137
0.18677
0.15808
0.10742
0.11597
0.15076
0.13367
0.10284
0.12146
0.15381
0.13306
0.098572
0.12207
0.16357
0.16418
0.19073
0.32623
0.52795
0.73883
1.0052
1.3605
1.6241
1.5253
1.0632
0.49957
0.10132
-0.031738
0.04364
0.1944
0.26703
0.21881
0.14984
0.1532
0.18097
0.16449
0.14191
0.16632
0.19165
0.17181
0.15564
0.2002
0.24078
0.21881
0.18982
0.21698
0.24628
0.22461
0.2063
0.25421
0.3006
0.28564
0.26703
0.31006
0.35675
0.34851
0.33569
0.3772
0.41656
0.39856
0.38239
0.4248
0.46692
0.4538
0.43457
0.46967
0.49774
0.4718
0.44647
0.47485
0.48981
0.44739
0.39917
0.39917
0.37567
0.29022
0.20935
0.19104
0.16602
0.092468
0.033569
0.04303
0.044556
-0.0033569
-0.036316
-0.0054932
0.011597
-0.02533
-0.053101
-0.017395
0.0048828
-0.024414
-0.041504
0.0042725
0.031738
-0.0012207
-0.031128
0.00030518
0.020752
-0.0088501
-0.030518
0.0088501
0.027466
-0.010681
-0.040894
-0.010986
0.0064087
-0.028687
-0.05249
-0.0177
0.0024414
-0.031738
-0.057068
-0.021057
-0.0030518
-0.045166
-0.083008
-0.061035
-0.045776
-0.06958
-0.081482
-0.043335
-0.031128
-0.068054
-0.087585
-0.05127
-0.040894
-0.079956
-0.08667
-0.015564
0.036621
0.01709
-0.011292
0.013428
0.040588
0.046997
0.069275
0.12268
0.12268
0.065308
0.032349
0.057373
0.048523
-0.031128
-0.1001
-0.10345
-0.10986
-0.15076
-0.1709
-0.1416
-0.13977
-0.1825
-0.19958
-0.16632
-0.15991
-0.2002
-0.21057
-0.15991
-0.1416
-0.17456
-0.18616
-0.12482
-0.045166
0.04425
0.20325
0.47699
0.78583
1.0635
1.214
1.073
0.58563
-0.0033569
-0.33203
-0.29816
-0.15625
-0.10193
-0.11566
-0.11719
-0.14313
-0.19165
-0.20386
-0.15869
-0.14496
-0.17395
-0.17456
-0.12543
-0.1123
-0.14191
-0.1413
-0.090332
-0.077515
-0.10895
-0.11108
-0.063171
-0.052795
-0.084839
-0.083618
-0.027771
-0.0088501
-0.034485
-0.031738
0.021362
0.039673
0.020752
0.035095
0.097046
0.11871
0.096741
0.1062
0.16144
0.17426
0.14465
0.14984
0.20081
0.20508
0.16052
0.13824
0.1532
0.12299
0.048828
0.0061035
0.0030518
-0.048218
-0.13947
-0.18524
-0.1712
-0.18768
-0.24139
-0.26398
-0.24292
-0.25848
-0.30029
-0.30029
-0.25665
-0.25848
-0.29388
-0.28381
-0.22675
-0.22247
-0.26001
-0.2594
-0.2121
-0.2066
-0.23926
-0.23651
-0.19775
-0.20813
-0.25055
-0.24719
-0.20111
-0.20172
-0.23712
-0.23315
-0.19318
-0.20447
-0.24445
-0.2356
-0.18921
-0.19287
-0.22858
-0.21973
-0.17395
-0.18707
-0.23468
-0.23834
-0.20142
-0.21088
-0.24811
-0.24017
-0.19684
-0.20538
-0.24597
-0.2417
-0.19928
-0.20233
-0.2356
-0.22644
-0.18707
-0.19867
-0.23712
-0.23071
-0.19073
-0.2002
-0.23712
-0.22919
-0.19135
-0.20355
-0.23682
-0.21484
-0.15442
-0.14038
-0.15869
-0.14252
-0.10315
-0.099182
-0.097656
-0.043945
0.017395
0.0024414
-0.049133
-0.056458
-0.040588
-0.080566
-0.14526
-0.16266
-0.15717
-0.20111
-0.25848
-0.25482
-0.22156
-0.23376
-0.2652
-0.24506
-0.20721
-0.22827
-0.27069
-0.25818
-0.2182
-0.23254
-0.26672
-0.24078
-0.16815
-0.10284
-0.020142
0.14557
0.38757
0.65674
0.9317
1.1096
0.97321
0.48553
-0.065308
-0.33691
-0.30182
-0.18372
-0.12085
-0.097046
-0.10223
-0.15259
-0.19318
-0.16968
-0.13245
-0.15137
-0.1825
-0.15137
-0.10284
-0.11108
-0.13519
-0.1059
-0.062866
-0.072632
-0.095825
-0.067444
-0.029907
-0.046387
-0.068665
-0.030518
0.018005
0.0076294
-0.01709
0.015564
0.064087
0.065002
0.052795
0.093384
0.14221
0.14191
0.13397
0.17639
0.21759
0.19928
0.17426
0.20874
0.2478
0.22552
0.19135
0.21301
0.23804
0.19928
0.1413
0.13245
0.12573
0.061951
-0.011902
-0.031738
-0.047607
-0.11169
-0.17059
-0.16357
-0.1474
-0.17975
-0.2121
-0.18341
-0.15259
-0.17242
-0.19653
-0.16174
-0.12604
-0.14374
-0.1651
-0.13336
-0.10315
-0.12543
-0.14984
-0.12146
-0.095215
-0.1178
-0.14191
-0.11627
-0.096741
-0.12695
-0.14832
-0.11139
-0.085144
-0.1178
-0.15228
-0.12726
-0.10437
-0.13153
-0.15747
-0.12848
-0.10895
-0.1413
-0.16846
-0.1358
-0.11108
-0.13947
-0.16632
-0.13336
-0.10529
-0.12787
-0.14771
-0.11841
-0.10651
-0.14374
-0.16846
-0.13123
-0.10925
-0.14404
-0.1709
-0.13397
-0.10315
-0.11658
-0.11658
-0.057983
-0.023804
-0.053711
-0.074463
-0.023193
0.032654
0.040894
0.041809
0.07782
0.082092
0.033569
-0.0042725
0.0085449
-0.0048828
-0.074158
-0.13
-0.11963
-0.11627
-0.15503
-0.17731
-0.14374
-0.13397
-0.17365
-0.19745
-0.16174
-0.14496
-0.17792
-0.19562
-0.15656
-0.13763
-0.15991
-0.15717
-0.072632
0.02594
0.11047
0.26093
0.53589
0.84503
1.0587
1.0513
0.77057
0.2774
-0.17883
-0.3421
-0.22247
-0.075684
-0.048828
-0.083008
-0.087891
-0.097961
-0.13062
-0.13123
-0.079651
-0.060425
-0.089722
-0.098572
-0.055237
-0.040588
-0.071716
-0.079346
-0.031433
-0.012512
-0.038757
-0.044556
0.0012207
0.020447
-0.0015259
0.00091553
0.050964
0.067749
0.043945
0.050964
0.11047
0.13428
0.10864
0.10864
0.16602
0.1947
0.17914
0.18707
0.24048
0.25391
0.22095
0.21576
0.26611
0.28015
0.24231
0.22186
0.24292
0.22095
0.14954
0.10284
0.10284
0.066528
-0.0097656
-0.053101
-0.045166
-0.072327
-0.13458
-0.15991
-0.13
-0.13184
-0.16846
-0.17029
-0.12756
-0.12695
-0.16754
-0.17273
-0.12756
-0.11719
-0.14496
-0.14343
-0.10101
-0.10071
-0.13763
-0.13916
-0.098572
-0.10345
-0.14618
-0.14984
-0.10315
-0.09552
-0.12939
-0.13153
-0.092773
-0.096741
-0.13641
-0.13824
-0.097046
-0.1004
-0.14221
-0.14404
-0.1001
-0.099487
-0.13611
-0.13641
-0.095215
-0.099792
-0.13947
-0.13947
-0.09613
-0.097961
-0.13611
-0.13458
-0.091553
-0.093079
-0.12939
-0.12817
-0.089111
-0.096741
-0.13397
-0.12787
-0.081177
-0.083008
-0.11688
-0.10101
-0.036011
-0.013733
-0.035706
-0.031128
0.010071
0.02655
0.032043
0.075684
0.13153
0.1178
0.065613
0.056458
0.078735
0.047302
-0.019226
-0.047302
-0.039673
-0.074463
-0.12421
-0.12207
-0.085449
-0.099792
-0.14221
-0.13641
-0.09552
-0.10498
-0.14496
-0.13977
-0.10254
-0.11353
-0.14557
-0.12085
-0.044861
0.019531
0.091248
0.23682
0.4538
0.68573
0.9198
1.0791
0.96771
0.52643
0.011902
-0.24872
-0.20782
-0.088806
-0.02655
-0.0048828
-0.0045776
-0.050964
-0.097656
-0.078735
-0.028687
-0.032043
-0.059814
-0.039978
0.0018311
-0.0085449
-0.038757
-0.014038
0.0354
0.032349
0.0064087
0.031433
0.079956
0.078125
0.055237
0.085144
0.13794
0.13977
0.12329
0.15747
0.20935
0.20874
0.18951
0.22278
0.27771
0.28412
0.27374
0.30975
0.35583
0.34729
0.32806
0.36499
0.41412
0.40253
0.36957
0.38574
0.41229
0.37903
0.32227
0.30762
0.29694
0.22644
0.14252
0.12177
0.12604
0.08667
0.036621
0.040894
0.058289
0.026855
-0.011597
0.010071
0.049438
0.040283
0.018921
0.049438
0.088196
0.074158
0.052185
0.083618
0.12115
0.10315
0.076294
0.10498
0.1413
0.12268
0.094299
0.11993
0.15533
0.14008
0.11902
0.14832
0.17914
0.16113
0.13855
0.16785
0.1944
0.16724
0.13824
0.16846
0.20142
0.18127
0.15503
0.18372
0.21118
0.18585
0.16235
0.19714
0.22827
0.2002
0.16449
0.18768
0.21698
0.19714
0.17944
0.22003
0.26123
0.25543
0.25452
0.30457
0.33813
0.31036
0.29449
0.36285
0.4361
0.44373
0.42633
0.44189
0.44464
0.39764
0.35614
0.36926
0.36346
0.29358
0.23163
0.2417
0.2594
0.23163
0.20538
0.2359
0.25482
0.224
0.20172
0.23529
0.25696
0.22522
0.20416
0.24689
0.28595
0.2774
0.30182
0.42389
0.57465
0.72296
0.95337
1.2964
1.5668
1.5335
1.1713
0.68726
0.28046
0.10132
0.16235
0.3363
0.42786
0.38971
0.33539
0.34882
0.36469
0.33752
0.32074
0.3595
0.38269
0.35919
0.35278
0.39948
0.42419
0.39856
0.38757
0.43579
0.46509
0.4422
0.43152
0.47821
0.5072
0.48828
0.48004
0.5246
0.55084
0.53406
0.53741
0.59784
0.63477
0.61646
0.61005
0.65674
0.68176
0.66376
0.66315
0.71686
0.74219
0.71289
0.69916
0.74127
0.75623
0.71777
0.68604
0.69458
0.67017
0.59265
0.52917
0.51575
0.47913
0.40497
0.36102
0.37659
0.3656
0.30853
0.27435
0.30182
0.31403
0.28595
0.2771
0.31647
0.32501
0.29053
0.27893
0.31921
0.33173
0.29907
0.28717
0.32227
0.32623
0.29144
0.28412
0.33051
0.34271
0.3125
0.3064
0.34271
0.34058
0.29633
0.2832
0.32166
0.32227
0.28046
0.27222
0.31769
0.32654
0.28778
0.27313
0.30945
0.31342
0.27924
0.27771
0.33051
0.35309
0.33508
0.33722
0.37628
0.38452
0.37354
0.4126
0.49133
0.50049
0.448
0.4245
0.45471
0.44098
0.37323
0.32806
0.32959
0.29816
0.23651
0.21362
0.24292
0.23224
0.18616
0.17548
0.21423
0.21393
0.177
0.17395
0.21423
0.20721
0.16113
0.16174
0.22278
0.25665
0.27649
0.36896
0.55725
0.78033
1.0587
1.3983
1.6437
1.5128
1.0156
0.45197
0.10406
0.0088501
0.074158
0.20203
0.29572
0.27344
0.19806
0.177
0.21667
0.21637
0.18433
0.19287
0.23834
0.23224
0.19257
0.20081
0.25574
0.26215
0.2298
0.23468
0.2774
0.27466
0.24414
0.26001
0.31097
0.30792
0.27771
0.29877
0.3656
0.37811
0.34851
0.35461
0.39978
0.40253
0.38208
0.40833
0.46478
0.46478
0.43304
0.45074
0.49896
0.49316
0.45166
0.45563
0.49164
0.46997
0.40833
0.37964
0.37537
0.31036
0.21667
0.17487
0.17365
0.12177
0.046387
0.026245
0.050964
0.036316
-0.0061035
-0.0057983
0.025024
0.011902
-0.022888
-0.014038
0.016479
-0.0027466
-0.031128
-0.0045776
0.040588
0.022888
-0.021667
-0.0091553
0.036926
0.026245
-0.012207
-0.0015259
0.03479
0.022583
-0.0094604
0.0079346
0.050964
0.032959
-0.0073242
0.0073242
0.041809
0.015259
-0.034485
-0.025635
0.018005
0.010071
-0.01709
0.015564
0.075378
0.075378
0.039673
0.054321
0.112
0.13641
0.13641
0.16693
0.19318
0.159
0.10498
0.098267
0.1001
0.039673
-0.036926
-0.048523
-0.029602
-0.059509
-0.10986
-0.10529
-0.075073
-0.090332
-0.12573
-0.11536
-0.091248
-0.10803
-0.13458
-0.11444
-0.09491
-0.12604
-0.14496
-0.083313
0.035095
0.13885
0.28137
0.54962
0.896
1.185
1.29
1.1017
0.62164
0.04303
-0.30975
-0.29907
-0.12939
-0.048218
-0.069885
-0.082703
-0.079956
-0.10742
-0.13275
-0.098877
-0.063171
-0.083923
-0.11536
-0.090332
-0.057373
-0.074463
-0.095215
-0.059509
-0.019226
-0.034485
-0.054932
-0.020142
0.011292
-0.014954
-0.040283
0.0036621
0.055542
0.050049
0.034485
0.077209
0.12634
0.12634
0.11932
0.15961
0.19196
0.17426
0.16022
0.20874
0.24597
0.22461
0.20203
0.24353
0.27771
0.24689
0.19379
0.18463
0.16785
0.1062
0.042419
0.025635
-0.0082397
-0.093079
-0.16144
-0.1593
-0.16235
-0.21637
-0.26367
-0.24384
-0.22278
-0.2536
-0.27771
-0.24475
-0.22125
-0.25055
-0.2774
-0.24414
-0.21912
-0.24506
-0.26245
-0.22339
-0.19745
-0.22705
-0.25146
-0.21759
-0.19287
-0.22156
-0.24719
-0.21271
-0.19012
-0.21729
-0.2417
-0.21576
-0.2063
-0.24567
-0.27252
-0.24017
-0.22186
-0.25055
-0.26306
-0.20813
-0.16357
-0.18219
-0.20264
-0.16968
-0.13702
-0.13428
-0.12512
-0.080261
-0.071716
-0.11444
-0.13855
-0.11047
-0.1181
-0.19104
-0.25635
-0.26123
-0.27649
-0.33234
-0.36407
-0.3299
-0.31128
-0.3418
-0.36438
-0.33325
-0.32288
-0.3595
-0.37872
-0.33844
-0.31891
-0.34546
-0.34851
-0.28717
-0.22064
-0.1593
-0.036621
0.19745
0.47882
0.76874
1.022
1.069
0.72388
0.11444
-0.38239
-0.51422
-0.41077
-0.2887
-0.22736
-0.20569
-0.24597
-0.31586
-0.33295
-0.28076
-0.26459
-0.30304
-0.31982
-0.27466
-0.25757
-0.28625
-0.2948
-0.24689
-0.22888
-0.25665
-0.26642
-0.22217
-0.20905
-0.2298
-0.22614
-0.16968
-0.15015
-0.17059
-0.15961
-0.091553
-0.062866
-0.08667
-0.086975
-0.033264
-0.011597
-0.030823
-0.024414
0.033875
0.055542
0.031738
0.032654
0.081177
0.088806
0.051575
0.038147
0.061951
0.033264
-0.047607
-0.10162
-0.10864
-0.15686
-0.24841
-0.30365
-0.3009
-0.32623
-0.38757
-0.41107
-0.38147
-0.38391
-0.42206
-0.43182
-0.3949
-0.39886
-0.4361
-0.4364
-0.39215
-0.39307
-0.43427
-0.43396
-0.38025
-0.36774
-0.39795
-0.401
-0.36438
-0.36804
-0.40802
-0.40741
-0.36102
-0.35706
-0.38971
-0.38757
-0.34637
-0.35065
-0.38879
-0.39032
-0.35126
-0.35919
-0.40161
-0.40375
-0.36346
-0.37048
-0.41199
-0.41107
-0.36896
-0.37231
-0.40771
-0.39978
-0.35065
-0.35706
-0.40497
-0.41046
-0.36407
-0.34821
-0.35675
-0.32471
-0.271
-0.27954
-0.31738
-0.29144
-0.20569
-0.17334
-0.19775
-0.20294
-0.1828
-0.21027
-0.26947
-0.28687
-0.27374
-0.31281
-0.38025
-0.39673
-0.37079
-0.38818
-0.43152
-0.42877
-0.39124
-0.40253
-0.44006
-0.42633
-0.37964
-0.38971
-0.43243
-0.42572
-0.3775
-0.37109
-0.38177
-0.30975
-0.16663
-0.037842
0.1181
0.39978
0.75256
0.94757
0.81329
0.4068
-0.082092
-0.46112
-0.57343
-0.44861
-0.28412
-0.25787
-0.32501
-0.35156
-0.32623
-0.33539
-0.36713
-0.3537
-0.31494
-0.32623
-0.35645
-0.33325
-0.2832
-0.289
-0.31677
-0.29297
-0.24384
-0.25116
-0.28442
-0.26367
-0.21271
-0.21057
-0.23071
-0.20264
-0.1535
-0.15564
-0.17548
-0.14221
-0.08728
-0.08606
-0.10315
-0.068359
-0.011597
-0.0061035
-0.020447
0.014648
0.063171
0.055237
0.030518
0.056763
0.094604
0.068054
0.018005
0.013428
0.015869
-0.050354
-0.14069
-0.17517
-0.18555
-0.24323
-0.31647
-0.33203
-0.32532
-0.36316
-0.40741
-0.39551
-0.36713
-0.39276
-0.42908
-0.40771
-0.37201
-0.39032
-0.42053
-0.3952
-0.35858
-0.37842
-0.41016
-0.38422
-0.34698
-0.36407
-0.39398
-0.36926
-0.33722
-0.36011
-0.39185
-0.36285
-0.32623
-0.34668
-0.38055
-0.35797
-0.32593
-0.34698
-0.37598
-0.35126
-0.32562
-0.35278
-0.38483
-0.35614
-0.32532
-0.35278
-0.38788
-0.36438
-0.33508
-0.35828
-0.38391
-0.35461
-0.32684
-0.35278
-0.38177
-0.35187
-0.32349
-0.35034
-0.37811
-0.3479
-0.31891
-0.34485
-0.3717
-0.33752
-0.30518
-0.32928
-0.35431
-0.31677
-0.26947
-0.26642
-0.26672
-0.22369
-0.19806
-0.21759
-0.21606
-0.14526
-0.091858
-0.11383
-0.14801
-0.12848
-0.11566
-0.16205
-0.21271
-0.21301
-0.22461
-0.2832
-0.32745
-0.30182
-0.28259
-0.31769
-0.34302
-0.30579
-0.27466
-0.30609
-0.33691
-0.30701
-0.27985
-0.30762
-0.32745
-0.28778
-0.24689
-0.24933
-0.21118
-0.080261
0.070801
0.20966
0.42694
0.75623
1.0056
0.93475
0.55481
0.080261
-0.28931
-0.43671
-0.36438
-0.19867
-0.12268
-0.1767
-0.23407
-0.21271
-0.18921
-0.22247
-0.24719
-0.20813
-0.17548
-0.1889
-0.19928
-0.16113
-0.14862
-0.17914
-0.18768
-0.13092
-0.099487
-0.12085
-0.13092
-0.084229
-0.06134
-0.087891
-0.090332
-0.032349
0.00061035
-0.022583
-0.024109
0.0354
0.074768
0.057373
0.058289
0.1178
0.15747
0.13977
0.13763
0.1889
0.21545
0.18799
0.18097
0.22736
0.24536
0.20172
0.1712
0.18768
0.16724
0.083923
0.01709
0.0073242
-0.02655
-0.10834
-0.15961
-0.14557
-0.15076
-0.20325
-0.23041
-0.2005
-0.19653
-0.23438
-0.24719
-0.20386
-0.19653
-0.23071
-0.23682
-0.18616
-0.17365
-0.20813
-0.21484
-0.16418
-0.15167
-0.19012
-0.19958
-0.15167
-0.13489
-0.16479
-0.17212
-0.12909
-0.12268
-0.16388
-0.17212
-0.12787
-0.11627
-0.15686
-0.16815
-0.12848
-0.12238
-0.16296
-0.17548
-0.1358
-0.13062
-0.16754
-0.17639
-0.13733
-0.13702
-0.17334
-0.17395
-0.12543
-0.12512
-0.16693
-0.17548
-0.13184
-0.12817
-0.16541
-0.16449
-0.11353
-0.10681
-0.14709
-0.15533
-0.11444
-0.1123
-0.14709
-0.14862
-0.10559
-0.10406
-0.13824
-0.13428
-0.088806
-0.09491
-0.13428
-0.12329
-0.05188
-0.021973
-0.043335
-0.039063
0.0094604
0.026855
0.021973
0.054016
0.11475
0.11292
0.064087
0.049438
0.072021
0.044861
-0.018311
-0.042419
-0.028992
-0.067749
-0.13336
-0.14038
-0.093689
-0.093079
-0.13275
-0.13153
-0.086975
-0.093689
-0.13916
-0.14282
-0.10345
-0.10773
-0.1416
-0.12665
-0.063477
-0.026245
0.021362
0.14709
0.33417
0.50995
0.71869
0.98328
1.1328
0.92346
0.43091
-0.02655
-0.2182
-0.19775
-0.1004
-0.0073242
0.031433
-0.01709
-0.079956
-0.075684
-0.028992
-0.031128
-0.059204
-0.043335
0.0024414
-0.0015259
-0.028076
-0.0039673
0.049133
0.048828
0.020752
0.038147
0.083313
0.076599
0.047302
0.067139
0.11597
0.11658
0.1004
0.13519
0.19348
0.1944
0.17578
0.21057
0.27222
0.27557
0.25421
0.28503
0.3421
0.34302
0.31708
0.34088
0.39154
0.39185
0.37079
0.39124
0.42847
0.40527
0.35217
0.33569
0.32562
0.25421
0.16663
0.1355
0.12787
0.067444
-0.0064087
-0.014954
0.005188
-0.024414
-0.070801
-0.057068
-0.014954
-0.028687
-0.068665
-0.062256
-0.031128
-0.042114
-0.063782
-0.03479
0.0048828
-0.014343
-0.045471
-0.019531
0.024109
0.007019
-0.029297
-0.010376
0.028076
0.016479
-0.0097656
0.015259
0.048828
0.025635
-0.0067139
0.020752
0.06012
0.039978
0.0018311
0.019226
0.048828
0.026855
-0.0030518
0.025024
0.057678
0.030212
-0.0067139
0.019226
0.057678
0.038452
0.0057983
0.032043
0.064697
0.041199
0.010681
0.036621
0.065918
0.039368
0.0085449
0.041809
0.081177
0.063782
0.039978
0.070801
0.1004
0.080872
0.07019
0.13123
0.18494
0.16296
0.12787
0.16876
0.23926
0.26398
0.2652
0.29694
0.31036
0.27069
0.23315
0.25421
0.26154
0.19684
0.12177
0.11383
0.12238
0.090637
0.064697
0.095825
0.12115
0.088806
0.057983
0.090027
0.12054
0.092163
0.062561
0.089722
0.11383
0.094299
0.088501
0.15808
0.24872
0.32684
0.45319
0.7016
1.0181
1.3071
1.4844
1.4096
0.99426
0.40741
0.00030518
-0.033875
0.12115
0.22766
0.24628
0.25299
0.24353
0.20233
0.18066
0.21942
0.24658
0.22705
0.21851
0.26611
0.29419
0.26642
0.24933
0.29419
0.32593
0.30457
0.28656
0.32471
0.34668
0.32135
0.31342
0.37109
0.41107
0.39856
0.39154
0.43884
0.47058
0.45685
0.45807
0.51819
0.55298
0.53833
0.53223
0.57922
0.60333
0.58105
0.5777
0.63232
0.6601
0.63385
0.61768
0.64911
0.6424
0.57007
0.50446
0.49194
0.45532
0.37262
0.31189
0.31067
0.28625
0.21912
0.17853
0.20355
0.20172
0.15289
0.13184
0.17822
0.20508
0.17517
0.15717
0.1947
0.2124
0.19257
0.18738
0.22339
0.22675
0.18799
0.18402
0.23285
0.24597
0.21057
0.19989
0.24139
0.24963
0.21393
0.20966
0.26031
0.2713
0.23193
0.21606
0.25452
0.26123
0.22095
0.20813
0.25177
0.25757
0.22156
0.2124
0.25177
0.25543
0.2121
0.19806
0.23712
0.23956
0.20416
0.2002
0.25146
0.27374
0.26154
0.27985
0.33447
0.33691
0.29785
0.30762
0.38849
0.43304
0.41931
0.41351
0.44403
0.42572
0.36102
0.31982
0.32104
0.27954
0.20752
0.18829
0.23163
0.23865
0.1947
0.18188
0.21942
0.21271
0.16754
0.15625
0.19867
0.20721
0.1767
0.17487
0.21637
0.22491
0.21667
0.28717
0.45105
0.60852
0.78156
1.0571
1.4197
1.6553
1.5643
1.1606
0.62653
0.18158
0.022888
0.14069
0.32959
0.37231
0.29785
0.25665
0.29266
0.29785
0.26855
0.2713
0.31525
0.31525
0.28046
0.28625
0.33295
0.33661
0.3125
0.32837
0.38361
0.38605
0.35278
0.3595
0.40802
0.41168
0.38696
0.40375
0.45746
0.46448
0.44647
0.47333
0.53619
0.54047
0.50812
0.52917
0.59692
0.61554
0.59845
0.61279
0.66101
0.65399
0.61279
0.61798
0.65521
0.6427
0.59235
0.5722
0.57068
0.513
0.42755
0.38666
0.3714
0.30121
0.21729
0.19775
0.21454
0.17578
0.1062
0.096436
0.13092
0.12085
0.083313
0.089111
0.12207
0.10345
0.064087
0.075378
0.11505
0.10437
0.06897
0.081482
0.11627
0.097046
0.058289
0.069885
0.1062
0.087891
0.045166
0.056458
0.097961
0.087891
0.052795
0.059509
0.086365
0.06073
0.015564
0.023499
0.052185
0.031128
-0.0091553
0.0030518
0.034485
0.0064087
-0.039368
-0.029297
-0.00061035
-0.025024
-0.067139
-0.05188
-0.014343
-0.027161
-0.047607
-0.0097656
0.036316
0.010071
-0.040283
-0.018005
0.053711
0.082397
0.073547
0.084229
0.089722
0.043335
-0.010681
-0.015869
-0.017395
-0.086975
-0.17242
-0.19226
-0.18188
-0.21332
-0.25146
-0.23651
-0.21423
-0.24689
-0.29175
-0.27802
-0.25482
-0.28534
-0.32074
-0.29724
-0.26825
-0.2951
-0.32196
-0.25909
-0.13977
-0.036011
0.10315
0.3653
0.70435
0.96893
1.0196
0.76752
0.2597
-0.28656
-0.56915
-0.51025
-0.34302
-0.28442
-0.32043
-0.33783
-0.34393
-0.38452
-0.41687
-0.38666
-0.35645
-0.38269
-0.4126
-0.383
-0.34912
-0.36987
-0.39795
-0.37415
-0.35126
-0.37872
-0.40192
-0.36407
-0.32776
-0.34515
-0.36957
-0.34119
-0.31494
-0.33295
-0.34332
-0.2948
-0.25482
-0.26764
-0.27832
-0.22919
-0.18402
-0.19226
-0.20325
-0.16449
-0.13947
-0.16998
-0.19409
-0.15717
-0.13031
-0.16113
-0.2005
-0.19745
-0.21484
-0.28992
-0.36316
-0.38544
-0.42419
-0.51086
-0.57861
-0.57983
-0.59021
-0.6488
-0.69519
-0.67963
-0.67596
-0.71686
-0.7431
-0.70923
-0.68909
-0.71838
-0.737
-0.70343
-0.69031
-0.7254
-0.74432
-0.70221
-0.68085
-0.71289
-0.73303
-0.69519
-0.67657
-0.71045
-0.73273
-0.69794
-0.6839
-0.7196
-0.7431
-0.71167
-0.70343
-0.7431
-0.76324
-0.72632
-0.7135
-0.75287
-0.77637
-0.74158
-0.73242
-0.77026
-0.78949
-0.74921
-0.73578
-0.77545
-0.80139
-0.77057
-0.76294
-0.80048
-0.82123
-0.78552
-0.7724
-0.79926
-0.80261
-0.75012
-0.72205
-0.73853
-0.7431
-0.70404
-0.69427
-0.70892
-0.68329
-0.60699
-0.58289
-0.62683
-0.66132
-0.64758
-0.66589
-0.72998
-0.77454
-0.76996
-0.79468
-0.85358
-0.8786
-0.84961
-0.85205
-0.89294
-0.90485
-0.8667
-0.86884
-0.91583
-0.93048
-0.88898
-0.88257
-0.92407
-0.93567
-0.88562
-0.85449
-0.83496
-0.74951
-0.58075
-0.40039
-0.19226
0.098877
0.37476
0.35553
-0.03479
-0.56305
-0.93353
-1.0614
-1.0101
-0.88654
-0.78796
-0.80078
-0.87463
-0.90057
-0.8606
-0.85449
-0.88928
-0.89417
-0.85052
-0.84412
-0.87402
-0.86975
-0.81757
-0.80566
-0.8313
-0.82458
-0.77362
-0.76721
-0.79773
-0.79163
-0.73608
-0.71869
-0.73914
-0.72571
-0.66772
-0.65002
-0.66833
-0.65552
-0.60211
-0.59021
-0.60852
-0.58655
-0.52338
-0.5072
-0.52673
-0.51056
-0.45746
-0.4541
-0.48492
-0.47729
-0.43396
-0.44739
-0.50537
-0.53009
-0.52277
-0.57037
-0.65918
-0.71167
-0.72174
-0.76904
-0.8371
-0.85571
-0.83191
-0.85236
-0.90118
-0.90576
-0.87189
-0.88226
-0.91705
-0.90851
-0.86761
-0.87738
-0.91156
-0.89478
-0.84015
-0.83832
-0.87067
-0.86243
-0.8194
-0.82306
-0.85327
-0.83954
-0.79681
-0.80414
-0.8371
-0.82245
-0.7785
-0.78918
-0.82672
-0.81818
-0.77759
-0.78918
-0.82581
-0.81177
-0.7666
-0.77454
-0.81055
-0.80139
-0.76263
-0.77484
-0.80597
-0.78857
-0.74585
-0.75806
-0.79346
-0.77515
-0.72876
-0.73822
-0.77148
-0.7547
-0.71228
-0.72205
-0.75104
-0.72235
-0.6604
-0.64819
-0.6665
-0.64697
-0.60394
-0.5957
-0.58838
-0.52856
-0.4657
-0.47668
-0.52032
-0.5188
-0.50049
-0.53925
-0.60059
-0.61523
-0.61249
-0.65674
-0.70404
-0.68848
-0.65063
-0.6662
-0.69763
-0.67993
-0.64941
-0.6723
-0.70557
-0.67963
-0.63812
-0.65277
-0.67841
-0.64209
-0.58136
-0.55695
-0.51056
-0.37598
-0.18921
0.0057983
0.26367
0.57648
0.71991
0.46844
-0.054626
-0.51819
-0.72174
-0.70526
-0.5899
-0.46539
-0.42389
-0.48187
-0.54016
-0.51605
-0.46814
-0.4776
-0.50079
-0.46661
-0.42419
-0.43335
-0.44952
-0.4068
-0.3595
-0.37323
-0.39612
-0.35797
-0.31097
-0.3183
-0.33356
-0.29236
-0.24689
-0.25574
-0.26581
-0.21545
-0.16449
-0.17273
-0.18341
-0.13062
-0.073853
-0.071106
-0.072327
-0.015259
0.036621
0.02655
0.011597
0.055847
0.099182
0.087891
0.075378
0.11871
0.14709
0.10742
0.057373
0.058289
0.048218
-0.022888
-0.094604
-0.10559
-0.11932
-0.18005
-0.22827
-0.20996
-0.19501
-0.23346
-0.26672
-0.23834
-0.21423
-0.23895
-0.25848
-0.21942
-0.19287
-0.21576
-0.22766
-0.17853
-0.14557
-0.17273
-0.19348
-0.14923
-0.11566
-0.13947
-0.16052
-0.11932
-0.08728
-0.10742
-0.12482
-0.086975
-0.062866
-0.090637
-0.10895
-0.07019
-0.048523
-0.076599
-0.092468
-0.049438
-0.027161
-0.06012
-0.080872
-0.039368
-0.016479
-0.047607
-0.071106
-0.03418
-0.015869
-0.046387
-0.061646
-0.014038
0.015869
-0.007019
-0.021362
0.01709
0.030212
0.00030518
0.00091553
0.072021
0.11719
0.09491
0.074463
0.12268
0.17212
0.18585
0.2005
0.24658
0.24597
0.18982
0.15533
0.17792
0.16968
0.10345
0.048218
0.054016
0.044556
0.00030518
-0.015564
0.025024
0.0354
-0.0036621
-0.018005
0.02533
0.03479
-0.0064087
-0.02533
0.019836
0.037842
0.010986
0.014038
0.091553
0.17181
0.24139
0.36926
0.60669
0.88135
1.1298
1.2744
1.1664
0.73303
0.18768
-0.13336
-0.11353
0.02533
0.098267
0.10437
0.10895
0.081482
0.033264
0.02655
0.073242
0.082703
0.046997
0.039063
0.08667
0.1004
0.071106
0.067444
0.11047
0.11322
0.075989
0.075378
0.12939
0.14099
0.10437
0.098877
0.15198
0.17273
0.15167
0.15411
0.20386
0.21667
0.19653
0.2124
0.27283
0.28717
0.2597
0.2655
0.31921
0.32837
0.29816
0.30365
0.35675
0.35858
0.31494
0.3009
0.33112
0.31128
0.23407
0.18127
0.16876
0.11017
0.011902
-0.049744
-0.053101
-0.089722
-0.15686
-0.18738
-0.16724
-0.18433
-0.23102
-0.24231
-0.21027
-0.2182
-0.25574
-0.24872
-0.20416
-0.2124
-0.25482
-0.2536
-0.20569
-0.20691
-0.24933
-0.25726
-0.22461
-0.23682
-0.28107
-0.28442
-0.24811
-0.25482
-0.29449
-0.2951
-0.26031
-0.27405
-0.31403
-0.31158
-0.2713
-0.28351
-0.33112
-0.33813
-0.30853
-0.3244
-0.36957
-0.36743
-0.32166
-0.32715
-0.37048
-0.37323
-0.33478
-0.34149
-0.37537
-0.37231
-0.33783
-0.35492
-0.39856
-0.383
-0.31525
-0.28809
-0.29907
-0.28351
-0.24719
-0.2533
-0.26947
-0.23254
-0.17303
-0.17426
-0.21149
-0.20813
-0.18402
-0.22308
-0.29724
-0.32776
-0.32715
-0.36835
-0.4184
-0.41534
-0.38177
-0.40497
-0.44769
-0.43274
-0.38177
-0.38544
-0.41962
-0.41077
-0.37964
-0.40039
-0.43793
-0.41626
-0.36102
-0.33447
-0.28809
-0.14313
0.07843
0.31433
0.5954
0.91248
1.0458
0.77332
0.21423
-0.29755
-0.53162
-0.53314
-0.42908
-0.31403
-0.27039
-0.32654
-0.39673
-0.39429
-0.35889
-0.36163
-0.37506
-0.34363
-0.31067
-0.33844
-0.37598
-0.34637
-0.28992
-0.29053
-0.31799
-0.30151
-0.2655
-0.27283
-0.28839
-0.2594
-0.21851
-0.22705
-0.2417
-0.2005
-0.14465
-0.1416
-0.15228
-0.11688
-0.074158
-0.079956
-0.085449
-0.032654
0.020142
0.0076294
-0.021362
0.010071
0.056763
0.051575
0.032349
0.057068
0.079651
0.045471
-0.0012207
-0.0079346
-0.02533
-0.10956
-0.19684
-0.21851
-0.22644
-0.28076
-0.33691
-0.33691
-0.32867
-0.36713
-0.40222
-0.36987
-0.33508
-0.3656
-0.40344
-0.37842
-0.33844
-0.34546
-0.36591
-0.32928
-0.29755
-0.32349
-0.35095
-0.31982
-0.2829
-0.29999
-0.32196
-0.28839
-0.26306
-0.29114
-0.31281
-0.27008
-0.2356
-0.26581
-0.30212
-0.27679
-0.24658
-0.26947
-0.29449
-0.26428
-0.23865
-0.26215
-0.28168
-0.2475
-0.22369
-0.25146
-0.27802
-0.25085
-0.23529
-0.26855
-0.28015
-0.21393
-0.14496
-0.14252
-0.16449
-0.1413
-0.11017
-0.096741
-0.068054
-0.007019
0.0082397
-0.042419
-0.08728
-0.073853
-0.084229
-0.15656
-0.21698
-0.2121
-0.21118
-0.25909
-0.30121
-0.27832
-0.25543
-0.27466
-0.28625
-0.25085
-0.24567
-0.29236
-0.32379
-0.29114
-0.26947
-0.29541
-0.30365
-0.24719
-0.18829
-0.13306
-0.0067139
0.24658
0.5542
0.85419
1.0995
1.1365
0.78735
0.177
-0.32928
-0.46753
-0.36804
-0.25787
-0.21149
-0.19531
-0.2243
-0.28381
-0.30426
-0.2597
-0.24048
-0.2713
-0.28229
-0.23529
-0.21637
-0.24994
-0.26825
-0.22614
-0.2066
-0.23468
-0.24445
-0.2002
-0.18158
-0.20935
-0.21881
-0.17273
-0.15198
-0.17609
-0.17853
-0.12573
-0.096741
-0.11108
-0.10712
-0.051575
-0.026855
-0.045471
-0.041199
0.013123
0.036011
0.011292
0.0054932
0.050354
0.063477
0.031738
0.016174
0.042419
0.022278
-0.047302
-0.099182
-0.10681
-0.15442
-0.24658
-0.30945
-0.3125
-0.3418
-0.40619
-0.43427
-0.40466
-0.40558
-0.44708
-0.45898
-0.42206
-0.42053
-0.45624
-0.46112
-0.41748
-0.41626
-0.45776
-0.46356
-0.4184
-0.41168
-0.44617
-0.44983
-0.40619
-0.4068
-0.44891
-0.45441
-0.40619
-0.40344
-0.45044
-0.46631
-0.42572
-0.41809
-0.45166
-0.46173
-0.42633
-0.42969
-0.47028
-0.47699
-0.44006
-0.44464
-0.48584
-0.49225
-0.4538
-0.45837
-0.49683
-0.49927
-0.46021
-0.466
-0.50232
-0.48889
-0.4184
-0.39368
-0.4184
-0.42328
-0.38818
-0.37842
-0.38239
-0.34698
-0.28656
-0.29358
-0.34729
-0.36804
-0.34973
-0.38147
-0.44983
-0.48218
-0.47333
-0.50507
-0.5603
-0.56946
-0.53558
-0.54993
-0.59662
-0.6012
-0.56366
-0.56946
-0.60333
-0.5957
-0.55542
-0.56641
-0.60516
-0.5899
-0.52307
-0.47516
-0.41595
-0.271
-0.030823
0.22919
0.49438
0.70709
0.66986
0.26093
-0.3067
-0.67871
-0.72113
-0.61554
-0.52673
-0.4837
-0.48065
-0.5365
-0.59265
-0.58167
-0.53528
-0.54535
-0.57831
-0.55725
-0.50476
-0.51208
-0.55054
-0.53772
-0.48584
-0.48645
-0.51788
-0.50354
-0.45624
-0.45807
-0.48431
-0.46326
-0.41382
-0.41595
-0.44403
-0.42389
-0.37201
-0.36896
-0.38361
-0.34607
-0.28442
-0.27985
-0.30121
-0.26978
-0.21576
-0.22125
-0.25238
-0.23468
-0.18829
-0.19501
-0.22644
-0.21423
-0.18768
-0.224
-0.28564
-0.30579
-0.31494
-0.38513
-0.47058
-0.49591
-0.49408
-0.54413
-0.60333
-0.59875
-0.56824
-0.59479
-0.6427
-0.63751
-0.60852
-0.62988
-0.66528
-0.64423
-0.60608
-0.6189
-0.64026
-0.60455
-0.5542
-0.57037
-0.6073
-0.58929
-0.55206
-0.56549
-0.59143
-0.56396
-0.52612
-0.5481
-0.58289
-0.55847
-0.52124
-0.54352
-0.58319
-0.56702
-0.53528
-0.55542
-0.58594
-0.56427
-0.53711
-0.56396
-0.59235
-0.55817
-0.51788
-0.5423
-0.57953
-0.55573
-0.52094
-0.54321
-0.57526
-0.54962
-0.51483
-0.5365
-0.56824
-0.53833
-0.49042
-0.48523
-0.48828
-0.45258
-0.42633
-0.44678
-0.44495
-0.37079
-0.30762
-0.32776
-0.37231
-0.36072
-0.34393
-0.38483
-0.43915
-0.44525
-0.4541
-0.51331
-0.56335
-0.54199
-0.51422
-0.53833
-0.56549
-0.53986
-0.5191
-0.55542
-0.58563
-0.54901
-0.51453
-0.53528
-0.55786
-0.51697
-0.47485
-0.47607
-0.44037
-0.30334
-0.13275
0.039673
0.28564
0.61401
0.80963
0.64514
0.18707
-0.28748
-0.58563
-0.6543
-0.55511
-0.40436
-0.35278
-0.41473
-0.47302
-0.44525
-0.41077
-0.43304
-0.45471
-0.4187
-0.39246
-0.41901
-0.43732
-0.39276
-0.35889
-0.3772
-0.38971
-0.34515
-0.31677
-0.34027
-0.35217
-0.30304
-0.27191
-0.29083
-0.29266
-0.2301
-0.18951
-0.21088
-0.22491
-0.17487
-0.13763
-0.14862
-0.14648
-0.085144
-0.047607
-0.065002
-0.069885
-0.014038
0.015869
-0.013123
-0.030518
0.010986
0.027466
-0.012207
-0.044861
-0.028381
-0.048218
-0.13062
-0.19897
-0.2066
-0.23438
-0.30701
-0.354
-0.33508
-0.33813
-0.38879
-0.41626
-0.38208
-0.37415
-0.41351
-0.42755
-0.37384
-0.34576
-0.37537
-0.39307
-0.35217
-0.33508
-0.36438
-0.37231
-0.3241
-0.30548
-0.33997
-0.35583
-0.31616
-0.30579
-0.33997
-0.34882
-0.29968
-0.28473
-0.32166
-0.33844
-0.29907
-0.29205
-0.32959
-0.33966
-0.29297
-0.28503
-0.32715
-0.33936
-0.29144
-0.27649
-0.31311
-0.32745
-0.28442
-0.27344
-0.30548
-0.30884
-0.26306
-0.26031
-0.30457
-0.31342
-0.26062
-0.24994
-0.28992
-0.29907
-0.24292
-0.21301
-0.22552
-0.21301
-0.15808
-0.14923
-0.17548
-0.15289
-0.064392
-0.026245
-0.052795
-0.064087
-0.036926
-0.054626
-0.11658
-0.14435
-0.12268
-0.14862
-0.21606
-0.23956
-0.20264
-0.20538
-0.25085
-0.25848
-0.21454
-0.21454
-0.25665
-0.26062
-0.21057
-0.20538
-0.24261
-0.24292
-0.19073
-0.17487
-0.17944
-0.10773
0.046387
0.1828
0.32562
0.57617
0.90118
1.0544
0.87006
0.44098
-0.0045776
-0.30151
-0.35614
-0.22339
-0.066833
-0.050964
-0.12756
-0.16052
-0.12726
-0.12848
-0.16266
-0.1535
-0.098877
-0.097046
-0.13275
-0.12451
-0.06958
-0.063171
-0.092773
-0.076599
-0.017395
-0.010986
-0.044556
-0.037537
0.013428
0.018311
-0.0064087
0.015869
0.077209
0.08606
0.061951
0.085449
0.1474
0.15503
0.13123
0.15533
0.22003
0.23102
0.20538
0.22491
0.2832
0.29144
0.27161
0.2951
0.34607
0.33203
0.28046
0.27222
0.28778
0.23621
0.14679
0.10681
0.10376
0.046082
-0.037231
-0.061646
-0.04425
-0.075073
-0.12878
-0.12939
-0.096741
-0.11902
-0.16235
-0.14557
-0.091248
-0.092773
-0.12573
-0.112
-0.069275
-0.07843
-0.10468
-0.076294
-0.023193
-0.036621
-0.078125
-0.063782
-0.0177
-0.028076
-0.065613
-0.050049
-0.0076294
-0.021362
-0.057373
-0.037842
0.0088501
-0.0042725
-0.040588
-0.020752
0.021667
0.0061035
-0.033264
-0.014954
0.030823
0.021973
-0.0033569
0.023499
0.061035
0.031738
-0.014038
0.0085449
0.059509
0.047607
0.012207
0.032959
0.076599
0.061951
0.029602
0.053101
0.093689
0.075989
0.046692
0.082703
0.14557
0.15045
0.12939
0.15717
0.20203
0.20844
0.22064
0.29144
0.35553
0.33173
0.27557
0.27618
0.29388
0.2533
0.1889
0.17334
0.17151
0.13153
0.10223
0.13672
0.17426
0.14343
0.10162
0.12695
0.16388
0.14221
0.11414
0.15106
0.19775
0.17822
0.1416
0.16937
0.22156
0.25574
0.32501
0.49103
0.71533
0.95734
1.2354
1.4798
1.4362
1.0107
0.45166
0.10468
0.050049
0.13672
0.23834
0.32257
0.33569
0.27649
0.23285
0.26581
0.29968
0.27405
0.24902
0.28961
0.32684
0.30579
0.28961
0.33936
0.3833
0.36285
0.3421
0.38574
0.42267
0.4007
0.38147
0.43365
0.48065
0.46387
0.44342
0.48615
0.52704
0.51758
0.51239
0.56824
0.61127
0.59967
0.59814
0.65979
0.70251
0.67963
0.65918
0.70465
0.73822
0.70923
0.67993
0.71381
0.72815
0.68085
0.63263
0.64301
0.62744
0.54016
0.45288
0.43152
0.40771
0.33813
0.28625
0.30548
0.30792
0.25787
0.22461
0.26154
0.28229
0.24719
0.22217
0.26367
0.28839
0.25879
0.24536
0.29114
0.31128
0.27405
0.2536
0.29907
0.32166
0.28687
0.26886
0.31219
0.32898
0.29022
0.27161
0.32135
0.34576
0.31342
0.29755
0.34454
0.35736
0.30975
0.27832
0.31372
0.32745
0.29053
0.27283
0.31555
0.32837
0.28778
0.27069
0.31555
0.32776
0.2832
0.26337
0.31494
0.35065
0.34088
0.34454
0.39398
0.40375
0.37476
0.39642
0.48828
0.52948
0.48584
0.44281
0.46265
0.45563
0.39551
0.35004
0.35767
0.33966
0.28168
0.25574
0.28442
0.27496
0.22095
0.20508
0.25391
0.26764
0.22491
0.20874
0.25482
0.26611
0.22675
0.21088
0.25543
0.27374
0.27222
0.34393
0.51941
0.69427
0.88165
1.1694
1.5204
1.673
1.4389
0.94025
0.44678
0.1297
0.065613
0.1947
0.36285
0.39642
0.31616
0.26489
0.3006
0.31738
0.289
0.27985
0.31921
0.32593
0.3006
0.31128
0.36377
0.36743
0.32959
0.33325
0.39032
0.39917
0.36377
0.36652
0.42603
0.44373
0.41809
0.42816
0.48859
0.49957
0.4657
0.47058
0.53314
0.55603
0.5365
0.55084
0.61554
0.63477
0.61462
0.62866
0.68115
0.68298
0.64301
0.64697
0.69763
0.68817
0.62714
0.59448
0.60028
0.5542
0.46692
0.42023
0.41687
0.36346
0.27832
0.24506
0.26489
0.23743
0.17334
0.16022
0.20142
0.2005
0.16144
0.16205
0.20264
0.1947
0.15472
0.16357
0.20691
0.19897
0.16083
0.17578
0.23224
0.22827
0.18707
0.19073
0.23285
0.22125
0.18066
0.19287
0.23926
0.22064
0.16693
0.16571
0.20782
0.19806
0.15625
0.16052
0.1944
0.17181
0.12848
0.14404
0.19012
0.1709
0.11963
0.12634
0.16815
0.14984
0.10681
0.12726
0.19196
0.20416
0.1767
0.18799
0.2243
0.21942
0.21423
0.26642
0.32776
0.30884
0.25543
0.25452
0.27496
0.22949
0.15564
0.13611
0.1416
0.090942
0.027466
0.031433
0.066528
0.042114
-0.0076294
0.0039673
0.045166
0.030518
-0.0064087
0.0091553
0.047302
0.026245
-0.014954
0.0064087
0.057983
0.07019
0.10345
0.2359
0.43671
0.65033
0.92072
1.2408
1.4005
1.1624
0.63141
0.13672
-0.11444
-0.14008
-0.046692
0.074768
0.12482
0.066833
-0.0018311
0.0097656
0.045471
0.026245
-0.0039673
0.026245
0.065308
0.039978
0.0057983
0.037537
0.081177
0.065002
0.037231
0.075378
0.12085
0.10254
0.06897
0.097351
0.13947
0.12726
0.10437
0.14038
0.18188
0.17151
0.16083
0.21179
0.26215
0.24872
0.23041
0.27802
0.33112
0.32104
0.29907
0.33875
0.37689
0.35217
0.31677
0.3421
0.36743
0.32745
0.271
0.26428
0.24841
0.17273
0.09491
0.078735
0.058594
-0.018005
-0.08667
-0.080872
-0.069885
-0.10895
-0.14221
-0.10803
-0.082397
-0.12177
-0.16113
-0.13062
-0.097961
-0.11932
-0.14069
-0.10162
-0.075073
-0.10773
-0.13428
-0.091553
-0.055847
-0.083313
-0.10956
-0.072937
-0.046997
-0.079041
-0.10559
-0.065613
-0.040588
-0.078735
-0.11292
-0.079651
-0.055542
-0.090027
-0.11841
-0.081482
-0.057983
-0.093384
-0.11932
-0.079346
-0.056152
-0.093994
-0.1236
-0.08728
-0.065613
-0.10101
-0.12512
-0.083923
-0.061951
-0.10101
-0.13245
-0.098572
-0.075684
-0.10101
-0.10803
-0.049438
-0.0091553
-0.028687
-0.044861
-0.0036621
0.02594
0.021057
0.039063
0.10529
0.12177
0.067749
0.028992
0.056763
0.054626
-0.014038
-0.072021
-0.065002
-0.076294
-0.13214
-0.16235
-0.12482
-0.11078
-0.14862
-0.16693
-0.12512
-0.11475
-0.15961
-0.18127
-0.1355
-0.1181
-0.15472
-0.16571
-0.10376
-0.052185
-0.019836
0.066223
0.24506
0.44586
0.67017
0.94727
1.1646
1.0437
0.57373
0.048218
-0.23315
-0.26428
-0.18066
-0.072937
0.0076294
-0.012207
-0.090027
-0.11566
-0.059814
-0.037842
-0.070801
-0.080566
-0.031738
-0.019531
-0.057068
-0.062866
-0.0097656
0.0094604
-0.016174
-0.011597
0.046997
0.06073
0.02533
0.024414
0.084229
0.10162
0.069275
0.06897
0.12909
0.15076
0.12421
0.13092
0.19714
0.22369
0.20416
0.21332
0.27679
0.29724
0.27313
0.28229
0.33997
0.34912
0.31036
0.30792
0.35492
0.34729
0.28198
0.24261
0.24963
0.20477
0.11353
0.06012
0.06012
0.014038
-0.070496
-0.10651
-0.082397
-0.098572
-0.15076
-0.15625
-0.10895
-0.11292
-0.16296
-0.16907
-0.12054
-0.11719
-0.15564
-0.15259
-0.10132
-0.098572
-0.13672
-0.13306
-0.080261
-0.077515
-0.11749
-0.1181
-0.074158
-0.07843
-0.11993
-0.11841
-0.072021
-0.074463
-0.11108
-0.10376
-0.057068
-0.065918
-0.11322
-0.1123
-0.068054
-0.078125
-0.12512
-0.12329
-0.073853
-0.075989
-0.11688
-0.11688
-0.079041
-0.093994
-0.13855
-0.12909
-0.079346
-0.082397
-0.12024
-0.11169
-0.067444
-0.082092
-0.12756
-0.11932
-0.071411
-0.078125
-0.11841
-0.10864
-0.063477
-0.074768
-0.10834
-0.079041
-0.0045776
0.0088501
-0.023499
-0.014343
0.036621
0.054932
0.058594
0.10162
0.14832
0.1178
0.058289
0.056458
0.08606
0.05188
-0.01709
-0.036316
-0.024719
-0.062256
-0.11475
-0.10864
-0.072327
-0.091858
-0.13275
-0.1178
-0.078735
-0.098572
-0.1358
-0.11536
-0.071716
-0.091858
-0.13092
-0.098877
-0.023804
0.022278
0.080872
0.22278
0.42725
0.63416
0.87036
1.1002
1.1023
0.73425
0.19623
-0.16449
-0.22644
-0.14191
-0.045776
0.02655
0.04303
-0.016785
-0.071411
-0.043945
0.0061035
-0.0088501
-0.045776
-0.020142
0.025635
0.011597
-0.022583
0.0024414
0.045776
0.036926
0.015259
0.050659
0.093384
0.077209
0.052795
0.092163
0.13733
0.11749
0.090942
0.13611
0.19165
0.1828
0.16022
0.20569
0.2655
0.26459
0.25238
0.29999
0.35095
0.33844
0.31769
0.35919
0.40405
0.38483
0.354
0.38055
0.40375
0.35583
0.29541
0.29236
0.2829
0.20721
0.12207
0.10315
0.089417
0.019531
-0.048828
-0.047302
-0.037537
-0.076599
-0.11017
-0.077209
-0.049133
-0.081177
-0.11169
-0.074463
-0.041809
-0.069275
-0.096436
-0.058594
-0.027771
-0.057068
-0.083313
-0.040283
-0.0012207
-0.021667
-0.04364
-0.010071
0.011597
-0.022583
-0.046082
0
0.032959
0.0057983
-0.017395
0.021667
0.045166
0.0067139
-0.025024
0.010376
0.035095
0.00061035
-0.024414
0.018616
0.048828
0.019531
-0.0067139
0.02655
0.04364
0.0048828
-0.020142
0.021973
0.050049
0.019531
-0.0039673
0.03479
0.053101
0.014954
-0.010071
0.031433
0.056763
0.027466
0.0094604
0.055237
0.078735
0.042725
0.018921
0.057678
0.079651
0.049133
0.039978
0.10345
0.15045
0.1355
0.12177
0.16174
0.18555
0.17944
0.20447
0.28534
0.31586
0.26917
0.2298
0.25513
0.25177
0.18921
0.13794
0.14404
0.12634
0.070801
0.049438
0.09491
0.10651
0.060425
0.039063
0.084839
0.099792
0.057373
0.033875
0.073547
0.084534
0.046387
0.0354
0.095825
0.14313
0.17212
0.26093
0.44525
0.64789
0.87097
1.149
1.3779
1.2833
0.8316
0.29816
-0.016174
-0.07843
0.00030518
0.11841
0.20599
0.18433
0.10132
0.072632
0.12238
0.13947
0.10406
0.095825
0.14496
0.15533
0.11932
0.10986
0.15717
0.16907
0.14008
0.1474
0.20721
0.22186
0.18921
0.18921
0.24323
0.25604
0.22827
0.24261
0.31067
0.3302
0.30182
0.30731
0.37201
0.39734
0.37689
0.39215
0.4599
0.48248
0.46082
0.47211
0.53345
0.54962
0.52002
0.52246
0.5661
0.55267
0.48737
0.45715
0.46906
0.42297
0.32837
0.27679
0.28625
0.25177
0.17303
0.13428
0.14709
0.1236
0.069275
0.064087
0.10925
0.10559
0.064697
0.068054
0.11749
0.11536
0.073547
0.081787
0.13763
0.14191
0.1001
0.098572
0.14648
0.14771
0.11322
0.12146
0.16754
0.16235
0.12146
0.13214
0.18463
0.18097
0.13641
0.13489
0.177
0.16998
0.12878
0.13184
0.17365
0.16693
0.1297
0.14343
0.18616
0.1709
0.12177
0.12177
0.16296
0.15259
0.11261
0.12482
0.16876
0.15289
0.11108
0.12634
0.1767
0.16113
0.11047
0.11536
0.16205
0.15656
0.12451
0.15625
0.22949
0.24597
0.21606
0.22095
0.26093
0.27588
0.28778
0.34637
0.40405
0.37598
0.31158
0.3067
0.33569
0.30365
0.23712
0.21271
0.2121
0.16754
0.11475
0.13275
0.17609
0.15106
0.097656
0.10223
0.13947
0.12604
0.096436
0.12665
0.17181
0.14893
0.10406
0.13123
0.19897
0.23926
0.30365
0.46631
0.70007
0.94269
1.2128
1.4804
1.5063
1.1316
0.5481
0.11108
-0.018311
0.04303
0.15564
0.25116
0.27069
0.20203
0.14313
0.16815
0.21271
0.19043
0.1532
0.18097
0.23254
0.22522
0.19836
0.22705
0.26825
0.25421
0.22949
0.25757
0.29388
0.26947
0.2417
0.28412
0.3363
0.32501
0.29968
0.336
0.38422
0.37628
0.36346
0.41382
0.47028
0.466
0.45074
0.49286
0.53528
0.52124
0.50537
0.5481
0.58807
0.57007
0.5481
0.5838
0.60486
0.55145
0.48828
0.48157
0.46295
0.37018
0.27283
0.24933
0.23834
0.17822
0.11932
0.12939
0.14191
0.097656
0.053711
0.071411
0.091858
0.059204
0.031738
0.068054
0.094604
0.067139
0.043945
0.085449
0.11688
0.086365
0.058899
0.099487
0.13702
0.11963
0.098267
0.13062
0.14771
0.11566
0.096741
0.13855
0.16052
0.1181
0.084534
0.11719
0.13794
0.10834
0.090942
0.13824
0.16174
0.11932
0.08606
0.1236
0.15137
0.11749
0.082397
0.10895
0.12482
0.095215
0.078125
0.11383
0.12421
0.083618
0.071716
0.1413
0.19501
0.17792
0.15381
0.18646
0.21729
0.21698
0.23407
0.2948
0.31189
0.26398
0.23132
0.25635
0.2478
0.17242
0.1059
0.10681
0.098877
0.052185
0.02594
0.060425
0.072021
0.039368
0.027771
0.069275
0.082092
0.039063
0.0177
0.055542
0.062866
0.028076
0.019531
0.083008
0.15045
0.21759
0.35248
0.59875
0.87982
1.1649
1.4185
1.4767
1.1432
0.53864
0.032349
-0.11993
-0.040894
0.065918
0.13184
0.17212
0.14862
0.082703
0.060425
0.10864
0.1239
0.090637
0.081787
0.13
0.13916
0.10284
0.094604
0.15076
0.16876
0.13428
0.12573
0.17822
0.19714
0.17242
0.17548
0.23132
0.2475
0.21973
0.22705
0.29053
0.30701
0.27527
0.28107
0.35065
0.38361
0.36896
0.38086
0.44342
0.46021
0.42999
0.43335
0.48645
0.4892
0.44464
0.43396
0.47302
0.45441
0.37628
0.32166
0.31097
0.25421
0.15686
0.10345
0.10803
0.065613
-0.013123
-0.041504
-0.010071
-0.020142
-0.072632
-0.08667
-0.047913
-0.052185
-0.091858
-0.089722
-0.040283
-0.042114
-0.084534
-0.083008
-0.031128
-0.024414
-0.057373
-0.052185
-0.0036621
-0.0030518
-0.042114
-0.04303
-0.0012207
-0.0076294
-0.046082
-0.041809
0.0015259
-0.0057983
-0.045166
-0.037537
0.010376
0.00091553
-0.045776
-0.046387
-0.00061035
-0.0027466
-0.040283
-0.036011
0.0036621
-0.011292
-0.058899
-0.059509
-0.021973
-0.033569
-0.073853
-0.063171
-0.01709
-0.022278
-0.047913
-0.012512
0.062866
0.067444
0.023193
0.02594
0.084229
0.11322
0.11627
0.14465
0.17853
0.13916
0.072327
0.06073
0.079346
0.037537
-0.038452
-0.061646
-0.043335
-0.06958
-0.11414
-0.10468
-0.06958
-0.092773
-0.13611
-0.12085
-0.080261
-0.1001
-0.14252
-0.1239
-0.07782
-0.092163
-0.12878
-0.095215
-0.0057983
0.070801
0.16449
0.35889
0.63873
0.92163
1.1462
1.2
0.92896
0.38055
-0.1239
-0.28809
-0.17426
-0.04364
-0.0048828
-0.00091553
-0.013428
-0.067749
-0.10986
-0.079346
-0.031128
-0.040894
-0.069275
-0.043335
-0.0073242
-0.028992
-0.057068
-0.021057
0.025635
0.0064087
-0.026855
0.005188
0.057373
0.053406
0.030518
0.063171
0.1059
0.09613
0.075989
0.11383
0.1593
0.15289
0.1413
0.18921
0.24017
0.23041
0.2179
0.26886
0.32257
0.31006
0.28564
0.32288
0.36499
0.34485
0.31189
0.33417
0.35156
0.3006
0.22705
0.19928
0.17059
0.089722
0.012512
-0.00091553
-0.012512
-0.074463
-0.13092
-0.11841
-0.10529
-0.14404
-0.18005
-0.15106
-0.12451
-0.15411
-0.18372
-0.14923
-0.11719
-0.13824
-0.16052
-0.12756
-0.10651
-0.13763
-0.15686
-0.10834
-0.073547
-0.10437
-0.13824
-0.10468
-0.075989
-0.10284
-0.12939
-0.098267
-0.079041
-0.10986
-0.13092
-0.088196
-0.068359
-0.11353
-0.1535
-0.12207
-0.096436
-0.12146
-0.14038
-0.10315
-0.088501
-0.13275
-0.16388
-0.1236
-0.098267
-0.12909
-0.14984
-0.10712
-0.083923
-0.12238
-0.15533
-0.12115
-0.099792
-0.12787
-0.14526
-0.098877
-0.065002
-0.074768
-0.075989
-0.032349
-0.015869
-0.032349
-0.0061035
0.083618
0.12207
0.076904
0.03418
0.055237
0.057068
0.0082397
-0.030518
-0.022278
-0.048523
-0.11902
-0.15656
-0.12543
-0.12329
-0.16815
-0.18738
-0.13977
-0.12756
-0.16876
-0.18799
-0.14526
-0.13885
-0.18188
-0.19653
-0.13702
-0.098877
-0.099182
-0.044861
0.10468
0.25726
0.4187
0.67566
1.0062
1.1621
0.9613
0.50293
0.044556
-0.25452
-0.31891
-0.20203
-0.039673
-0.0057983
-0.076294
-0.1236
-0.091553
-0.079346
-0.10925
-0.10956
-0.056152
-0.045471
-0.082703
-0.087891
-0.03418
-0.017395
-0.045166
-0.044556
0.0085449
0.021362
-0.0094604
-0.0082397
0.046387
0.058594
0.030212
0.038452
0.10132
0.12146
0.098877
0.10986
0.17548
0.19989
0.18005
0.19409
0.25635
0.27679
0.25848
0.27435
0.33417
0.34241
0.30731
0.31158
0.36194
0.36316
0.31921
0.30487
0.32532
0.28137
0.18738
0.13306
0.13123
0.08606
0.0048828
-0.031128
-0.018311
-0.049744
-0.11169
-0.12451
-0.086975
-0.095215
-0.13855
-0.13306
-0.084229
-0.084229
-0.12177
-0.11749
-0.071716
-0.076904
-0.11475
-0.10498
-0.058289
-0.065613
-0.10773
-0.10071
-0.050354
-0.050964
-0.086365
-0.080261
-0.040588
-0.051575
-0.090027
-0.075989
-0.028076
-0.037231
-0.079346
-0.073242
-0.030212
-0.043335
-0.08667
-0.078735
-0.036621
-0.047913
-0.089722
-0.083313
-0.04425
-0.059814
-0.10376
-0.095215
-0.053406
-0.062866
-0.1001
-0.089111
-0.05127
-0.067749
-0.10742
-0.091858
-0.049438
-0.063171
-0.098877
-0.079651
-0.036011
-0.055542
-0.10254
-0.089722
-0.045776
-0.057983
-0.09613
-0.086365
-0.049438
-0.059814
-0.079956
-0.036926
0.025024
0.017395
-0.015564
0.010986
0.072327
0.086975
0.078125
0.10651
0.13611
0.099792
0.044556
0.046692
0.06012
0.0085449
-0.062866
-0.073853
-0.06073
-0.095215
-0.13733
-0.11658
-0.079346
-0.099792
-0.13519
-0.11719
-0.090332
-0.12146
-0.15625
-0.12482
-0.080872
-0.096436
-0.11932
-0.067749
0.02594
0.10132
0.19531
0.38513
0.64056
0.89233
1.0818
1.0907
0.78491
0.2536
-0.17853
-0.271
-0.14374
-0.034485
-0.0067139
0.0076294
0.0030518
-0.04364
-0.075073
-0.0354
0.0042725
-0.019226
-0.047913
-0.010376
0.030823
0.014648
-0.0067139
0.031738
0.067749
0.045166
0.021057
0.06134
0.10315
0.08728
0.068359
0.10864
0.14221
0.12238
0.10712
0.16205
0.2121
0.20111
0.18677
0.23346
0.27893
0.27557
0.27679
0.33508
0.37445
0.35522
0.34454
0.3952
0.4303
0.40192
0.37842
0.41199
0.4248
0.37109
0.31281
0.30762
0.27863
0.19165
0.11688
0.10956
0.089722
0.0177
-0.039368
-0.021667
-0.010986
-0.046692
-0.070801
-0.0354
-0.020142
-0.057983
-0.081482
-0.04303
-0.026855
-0.060425
-0.072021
-0.018921
0.0067139
-0.027466
-0.050354
-0.0073242
0.015869
-0.011292
-0.024109
0.0177
0.028076
-0.013123
-0.031128
0.014343
0.033264
-0.0024414
-0.020752
0.022278
0.037842
0.0015259
-0.013428
0.029907
0.040894
-0.0015259
-0.025635
0.013428
0.026855
-0.0064087
-0.018921
0.023804
0.032654
-0.0045776
-0.018921
0.020447
0.025635
-0.010986
-0.016479
0.032959
0.041504
-0.00061035
-0.012817
0.037231
0.055542
0.022888
0.011597
0.049133
0.049133
0.010681
0.0064087
0.057068
0.066833
0.027466
0.020142
0.071716
0.091553
0.077209
0.096741
0.1593
0.16388
0.12268
0.13519
0.22156
0.26367
0.23651
0.22064
0.25238
0.24231
0.18707
0.15564
0.17029
0.14374
0.079956
0.056458
0.084229
0.069885
0.020447
0.016479
0.067749
0.073547
0.036011
0.031738
0.075684
0.081177
0.048218
0.052185
0.09552
0.095825
0.075378
0.13489
0.28687
0.43121
0.58319
0.83862
1.1838
1.4178
1.3593
1.0059
0.51147
0.063782
-0.12726
-0.032654
0.16479
0.23865
0.18799
0.14771
0.16052
0.1474
0.1181
0.13641
0.18951
0.18219
0.13855
0.14709
0.20325
0.21454
0.19165
0.20874
0.25757
0.2533
0.22156
0.24292
0.29968
0.30273
0.27069
0.28473
0.33447
0.33356
0.30579
0.32745
0.38666
0.39978
0.39093
0.42725
0.48767
0.48706
0.45959
0.48523
0.53986
0.53436
0.50232
0.51971
0.57129
0.56458
0.52612
0.53162
0.5542
0.5011
0.41016
0.36255
0.34637
0.28412
0.20172
0.17609
0.17761
0.13092
0.071106
0.070801
0.094604
0.066833
0.026245
0.046082
0.087891
0.065613
0.023499
0.038452
0.081787
0.075378
0.057068
0.083923
0.11719
0.088196
0.048523
0.074768
0.11841
0.10284
0.071106
0.093994
0.12756
0.10071
0.057983
0.080566
0.12177
0.10712
0.076294
0.10223
0.13947
0.11261
0.065002
0.074158
0.10437
0.083618
0.048828
0.068054
0.099487
0.082092
0.057678
0.084229
0.1123
0.083923
0.05188
0.079956
0.10986
0.086365
0.054932
0.080566
0.10559
0.080261
0.056152
0.09613
0.13733
0.12909
0.12512
0.1712
0.20172
0.17517
0.16724
0.23682
0.29755
0.28046
0.24445
0.26367
0.27344
0.22736
0.17975
0.19012
0.18555
0.11963
0.063171
0.079346
0.09552
0.058289
0.02533
0.057373
0.085144
0.06012
0.037537
0.064697
0.077515
0.044556
0.03479
0.087585
0.12421
0.10345
0.12451
0.2655
0.44312
0.61584
0.85693
1.2012
1.4627
1.4102
1.0281
0.52216
0.096436
-0.088501
-0.023804
0.15045
0.22369
0.16052
0.096741
0.12207
0.1474
0.11902
0.09552
0.13458
0.16205
0.14252
0.13397
0.17731
0.19836
0.17426
0.16205
0.20691
0.22827
0.20264
0.19714
0.24536
0.26306
0.23346
0.22675
0.28442
0.31647
0.29663
0.29694
0.35767
0.39276
0.37628
0.3775
0.43488
0.46356
0.44891
0.45685
0.51453
0.53223
0.49469
0.48798
0.53986
0.55359
0.51086
0.48096
0.49561
0.46082
0.36774
0.29358
0.28107
0.23956
0.15961
0.112
0.1181
0.091858
0.027771
0.0018311
0.03418
0.033875
-0.0048828
-0.007019
0.046997
0.05249
0.0085449
-0.0054932
0.039063
0.048828
0.014038
0.0088501
0.056763
0.066833
0.033264
0.031128
0.075073
0.075684
0.0354
0.032043
0.082703
0.089722
0.048828
0.036621
0.073242
0.075073
0.042725
0.046692
0.093994
0.089722
0.043335
0.032959
0.070801
0.068665
0.029602
0.026245
0.066528
0.057068
0.012207
0.0076294
0.051575
0.051575
0.014648
0.013123
0.054016
0.055847
0.035706
0.067749
0.1416
0.14679
0.097961
0.092468
0.15228
0.19135
0.19501
0.21454
0.24384
0.21423
0.15656
0.15045
0.17303
0.13
0.046387
0.013428
0.033569
0.013428
-0.031128
-0.030518
0.0036621
-0.015564
-0.059814
-0.051575
-0.0076294
-0.016174
-0.059204
-0.054932
-0.017395
-0.025024
-0.046997
-0.0097656
0.085144
0.17303
0.28625
0.50842
0.81879
1.1121
1.3065
1.2875
0.9491
0.37018
-0.11719
-0.2417
-0.099487
0.027161
0.043335
0.031433
0.030518
-0.0012207
-0.038452
-0.019836
0.016479
0.0012207
-0.024109
0.010376
0.06012
0.044861
0.0048828
0.022888
0.067139
0.058594
0.032959
0.061035
0.10529
0.09491
0.072632
0.11139
0.1651
0.15747
0.13031
0.16266
0.21576
0.21759
0.20477
0.24536
0.29572
0.29175
0.28076
0.32928
0.38513
0.37811
0.35217
0.37811
0.41321
0.3952
0.36804
0.39001
0.40161
0.3421
0.26367
0.23682
0.21362
0.13458
0.049744
0.023499
0.0033569
-0.057373
-0.10468
-0.083618
-0.063477
-0.10468
-0.14862
-0.12573
-0.099792
-0.12512
-0.15167
-0.11597
-0.080566
-0.10406
-0.13
-0.095825
-0.065918
-0.090942
-0.11841
-0.087585
-0.060425
-0.087891
-0.11169
-0.072327
-0.041199
-0.071411
-0.10284
-0.074463
-0.050354
-0.079346
-0.10742
-0.075684
-0.055237
-0.090637
-0.11841
-0.083923
-0.06012
-0.089111
-0.11261
-0.076904
-0.058289
-0.095825
-0.12421
-0.091553
-0.074768
-0.10773
-0.12604
-0.081787
-0.057983
-0.093384
-0.12054
-0.084839
-0.063782
-0.095825
-0.11902
-0.083618
-0.064087
-0.084839
-0.082397
-0.016479
0.018311
-0.012207
-0.03418
0.017395
0.069275
0.076294
0.081177
0.12085
0.12054
0.069885
0.036316
0.057678
0.044861
-0.025635
-0.076904
-0.06073
-0.059509
-0.10284
-0.12726
-0.093079
-0.085144
-0.12543
-0.14282
-0.10437
-0.094299
-0.13245
-0.14954
-0.11017
-0.10162
-0.13092
-0.12177
-0.027771
0.06897
0.14893
0.29175
0.55359
0.85297
1.0938
1.1646
0.9491
0.45013
-0.071411
-0.30182
-0.20721
-0.056152
-0.0097656
-0.024109
-0.021973
-0.046997
-0.095825
-0.10284
-0.052185
-0.038757
-0.068665
-0.068359
-0.020142
-0.013123
-0.047607
-0.046997
0.0030518
0.010071
-0.022888
-0.01709
0.042725
0.058899
0.031433
0.037231
0.090332
0.099182
0.072632
0.086975
0.15228
0.16998
0.14526
0.16144
0.22919
0.25574
0.24109
0.25909
0.31677
0.32471
0.29449
0.30365
0.35828
0.36682
0.33203
0.32684
0.35217
0.32166
0.25085
0.21545
0.21545
0.16205
0.07019
0.022888
0.020752
-0.021973
-0.091553
-0.112
-0.08606
-0.10101
-0.1416
-0.13672
-0.09491
-0.10406
-0.14313
-0.13641
-0.09491
-0.10651
-0.14587
-0.13397
-0.082703
-0.082703
-0.11108
-0.094299
-0.047913
-0.057068
-0.097046
-0.089111
-0.048828
-0.06012
-0.09552
-0.083313
-0.044861
-0.062256
-0.10162
-0.087585
-0.046082
-0.064697
-0.10681
-0.093994
-0.049744
-0.06073
-0.098267
-0.085144
-0.047302
-0.063782
-0.10162
-0.089722
-0.054626
-0.072632
-0.1062
-0.083618
-0.040588
-0.055237
-0.088806
-0.06897
-0.032654
-0.057678
-0.098572
-0.080566
-0.040283
-0.057983
-0.092163
-0.061035
-0.00030518
0.012207
-0.0033569
0.017395
0.044556
0.033264
0.034485
0.10071
0.15778
0.13733
0.090637
0.097961
0.10895
0.055847
-0.0085449
-0.011902
-0.0067139
-0.054626
-0.10712
-0.091858
-0.064087
-0.093994
-0.13184
-0.10895
-0.075073
-0.09613
-0.12726
-0.10529
-0.079956
-0.10681
-0.13306
-0.090332
-0.037231
-0.022583
0.020752
0.15686
0.32898
0.50903
0.76294
1.0785
1.2186
0.97015
0.45654
-0.0027466
-0.22736
-0.23071
-0.11566
0.01709
0.05188
-0.014954
-0.071716
-0.044861
-0.012512
-0.037537
-0.061646
-0.025024
0.0030518
-0.025635
-0.048218
-0.0048828
0.033264
0.015564
-0.00091553
0.039673
0.06897
0.045776
0.029297
0.072937
0.10468
0.086975
0.079346
0.12878
0.15991
0.1358
0.12756
0.18555
0.22858
0.2179
0.21606
0.27435
0.31281
0.29297
0.28229
0.33173
0.36407
0.34515
0.33508
0.37811
0.39276
0.35248
0.31952
0.32867
0.29663
0.20599
0.13641
0.13245
0.10468
0.023804
-0.0354
-0.026245
-0.032043
-0.079956
-0.10559
-0.072937
-0.067444
-0.10834
-0.12543
-0.083313
-0.07019
-0.10345
-0.11078
-0.060425
-0.04364
-0.07843
-0.092163
-0.050659
-0.043335
-0.081482
-0.090942
-0.039673
-0.020447
-0.053406
-0.064697
-0.02533
-0.021057
-0.059814
-0.070496
-0.025635
-0.018616
-0.055237
-0.059814
-0.012817
-0.0067139
-0.049744
-0.062256
-0.019531
-0.016785
-0.057068
-0.065918
-0.021973
-0.015564
-0.055237
-0.061951
-0.014648
-0.005188
-0.036621
-0.038147
0.0054932
0.007019
-0.028992
-0.027466
0.021362
0.024109
-0.014954
-0.016479
0.0354
0.050964
0.038452
0.063171
0.12177
0.12238
0.090942
0.12238
0.2121
0.24323
0.21301
0.20203
0.22827
0.20844
0.1535
0.13702
0.1535
0.11169
0.036926
0.018005
0.055847
0.050964
0.011902
0.011292
0.048828
0.0354
-0.0085449
-0.0036621
0.042419
0.039368
0.0030518
0.010376
0.06134
0.074158
0.076904
0.15808
0.30365
0.42908
0.58197
0.86212
1.2003
1.3556
1.1737
0.74554
0.27893
-0.050049
-0.11902
0.026245
0.19348
0.21515
0.14587
0.12207
0.15106
0.14252
0.10986
0.12543
0.16968
0.16724
0.14557
0.17609
0.22705
0.21729
0.18219
0.20172
0.25238
0.2536
0.23285
0.26184
0.31189
0.31006
0.28961
0.32013
0.36957
0.3656
0.34576
0.38025
0.43274
0.43243
0.4184
0.45807
0.51483
0.5191
0.50659
0.54352
0.58807
0.57587
0.55664
0.59845
0.6485
0.6308
0.58563
0.58502
0.58746
0.52765
0.45074
0.42969
0.41809
0.35309
0.27802
0.26001
0.2533
0.19684
0.14618
0.16083
0.18372
0.15137
0.11597
0.14648
0.18402
0.16357
0.13153
0.159
0.19257
0.17303
0.14832
0.18097
0.21393
0.19318
0.16754
0.19623
0.22125
0.19318
0.16663
0.20233
0.23285
0.20844
0.18738
0.22858
0.26123
0.22736
0.18768
0.20813
0.22552
0.19196
0.16022
0.18799
0.20782
0.17731
0.15472
0.19562
0.22278
0.1889
0.159
0.18921
0.21027
0.17853
0.15228
0.19043
0.21912
0.20416
0.20447
0.2597
0.28656
0.25208
0.23895
0.30701
0.37231
0.37292
0.36224
0.39063
0.39764
0.354
0.31403
0.31525
0.28168
0.2005
0.15167
0.18127
0.19623
0.16022
0.13611
0.17212
0.18738
0.15228
0.13
0.16327
0.17365
0.14282
0.13184
0.17456
0.1947
0.17822
0.20935
0.33539
0.466
0.59204
0.81085
1.1685
1.4935
1.586
1.355
0.89905
0.38269
0.045471
0.018005
0.19196
0.31067
0.29358
0.24811
0.25696
0.25787
0.22888
0.22491
0.26733
0.26886
0.2298
0.22888
0.28717
0.30762
0.27832
0.27344
0.32471
0.34454
0.32257
0.32196
0.36804
0.38086
0.36041
0.37018
0.41992
0.42603
0.39886
0.41534
0.48584
0.5069
0.48126
0.49011
0.55328
0.57983
0.56335
0.57648
0.63629
0.65002
0.61981
0.6192
0.66589
0.672
0.64026
0.63538
0.65582
0.61218
0.52155
0.46844
0.46356
0.40955
0.31555
0.26733
0.27313
0.24414
0.18707
0.17548
0.21423
0.20416
0.15472
0.14435
0.18158
0.17822
0.14648
0.159
0.20996
0.21118
0.17548
0.18005
0.21942
0.20477
0.1651
0.17761
0.22797
0.22186
0.18097
0.18768
0.2359
0.23102
0.18951
0.19043
0.22614
0.2179
0.18494
0.19653
0.23193
0.2124
0.16937
0.17914
0.22034
0.20447
0.16266
0.16785
0.20355
0.18707
0.15228
0.1767
0.23529
0.24445
0.22797
0.24628
0.27649
0.25482
0.23834
0.29572
0.36926
0.36163
0.30945
0.3064
0.32806
0.29114
0.22614
0.20569
0.20142
0.14648
0.081177
0.081177
0.10651
0.079041
0.032654
0.037842
0.063171
0.04364
0.013123
0.03418
0.062256
0.033264
-0.0039673
0.019531
0.063171
0.068054
0.095215
0.21881
0.39368
0.57678
0.82855
1.1703
1.405
1.2704
0.79651
0.26123
-0.093994
-0.19745
-0.11383
0.031128
0.090332
0.028076
-0.045776
-0.036926
-0.0088501
-0.036926
-0.073547
-0.053406
-0.027771
-0.05249
-0.07782
-0.040588
-0.0033569
-0.022278
-0.048218
-0.0177
0.0088501
-0.018311
-0.043945
-0.0085449
0.025635
0.007019
-0.011292
0.026855
0.055847
0.035095
0.021057
0.06897
0.10315
0.081177
0.067444
0.11841
0.16296
0.14648
0.12695
0.16327
0.18799
0.16235
0.14069
0.17151
0.18127
0.13031
0.079346
0.075684
0.044861
-0.043945
-0.12634
-0.15106
-0.18982
-0.27649
-0.34485
-0.34058
-0.34363
-0.39459
-0.43671
-0.42389
-0.42297
-0.46112
-0.4834
-0.45013
-0.4425
-0.48004
-0.49469
-0.45074
-0.43396
-0.47302
-0.49774
-0.46112
-0.44464
-0.47729
-0.49774
-0.46631
-0.46082
-0.50415
-0.5307
-0.50049
-0.49194
-0.52612
-0.54504
-0.51636
-0.51849
-0.56305
-0.58228
-0.54749
-0.5423
-0.58289
-0.60028
-0.56519
-0.56549
-0.61554
-0.64148
-0.60852
-0.60089
-0.63171
-0.62836
-0.56702
-0.54718
-0.58624
-0.60638
-0.55786
-0.52002
-0.52155
-0.51453
-0.48187
-0.50049
-0.56458
-0.59998
-0.58929
-0.62195
-0.69946
-0.74677
-0.73669
-0.75378
-0.80383
-0.82062
-0.79041
-0.79865
-0.84564
-0.85785
-0.82214
-0.82489
-0.86426
-0.86945
-0.82855
-0.82886
-0.8606
-0.84534
-0.75867
-0.67627
-0.59448
-0.42877
-0.14893
0.15076
0.37323
0.40558
0.13824
-0.39154
-0.89874
-1.0916
-0.98694
-0.85022
-0.81299
-0.8255
-0.83252
-0.87158
-0.91827
-0.91125
-0.86487
-0.86975
-0.90637
-0.89874
-0.85052
-0.849
-0.87952
-0.87006
-0.82764
-0.83527
-0.87067
-0.86334
-0.81696
-0.81696
-0.84198
-0.82367
-0.77576
-0.77637
-0.79926
-0.77362
-0.71899
-0.72083
-0.74646
-0.72205
-0.66589
-0.66223
-0.68481
-0.65613
-0.59753
-0.59265
-0.61798
-0.59753
-0.55298
-0.56396
-0.60577
-0.60913
-0.59418
-0.6308
-0.69275
-0.71503
-0.72845
-0.80688
-0.90332
-0.94177
-0.9494
-1.0001
-1.0605
-1.0602
-1.0358
-1.0608
-1.0992
-1.084
-1.0507
-1.0706
-1.1038
-1.0843
-1.0495
-1.0666
-1.0907
-1.0577
-1.0144
-1.0364
-1.0776
-1.0626
-1.0297
-1.048
-1.0788
-1.0596
-1.0287
-1.0504
-1.0815
-1.0593
-1.0318
-1.059
-1.0941
-1.0724
-1.044
-1.0669
-1.0971
-1.0748
-1.0507
-1.0812
-1.1099
-1.0797
-1.051
-1.0828
-1.1212
-1.0947
-1.0583
-1.0712
-1.0822
-1.0315
-0.98602
-1.0095
-1.0468
-1.0147
-0.95459
-0.92957
-0.91675
-0.87494
-0.85938
-0.90515
-0.9494
-0.93689
-0.93994
-1.0043
-1.0699
-1.0666
-1.0571
-1.0944
-1.1304
-1.1063
-1.0883
-1.1172
-1.1423
-1.1105
-1.091
-1.1188
-1.1349
-1.0941
-1.0699
-1.1014
-1.1182
-1.062
-0.99091
-0.9317
-0.82458
-0.61096
-0.34424
-0.077209
0.13977
0.16846
-0.14832
-0.69336
-1.1374
-1.2488
-1.1475
-1.0376
-0.98358
-0.95825
-0.9845
-1.0434
-1.0608
-1.0092
-0.98175
-1.0095
-1.0202
-0.96771
-0.93689
-0.95886
-0.96954
-0.92377
-0.90332
-0.92926
-0.93994
-0.89508
-0.87463
-0.89722
-0.89539
-0.83954
-0.81573
-0.83923
-0.83862
-0.78094
-0.75653
-0.78064
-0.77759
-0.71136
-0.67139
-0.68024
-0.67078
-0.61157
-0.58807
-0.6131
-0.61523
-0.56427
-0.54626
-0.5722
-0.57343
-0.52917
-0.53192
-0.59174
-0.63293
-0.62897
-0.66711
-0.7489
-0.802
-0.802
-0.83557
-0.90637
-0.93597
-0.90759
-0.9137
-0.95825
-0.96741
-0.92102
-0.91522
-0.95276
-0.95795
-0.91125
-0.89966
-0.92621
-0.92255
-0.8786
-0.88013
-0.91553
-0.90607
-0.84869
-0.84198
-0.88226
-0.88623
-0.83984
-0.83618
-0.87189
-0.87189
-0.82764
-0.82672
-0.85968
-0.85449
-0.80811
-0.80994
-0.84717
-0.84412
-0.802
-0.80994
-0.84656
-0.83496
-0.78156
-0.78461
-0.82703
-0.82642
-0.78186
-0.78308
-0.81757
-0.81146
-0.76935
-0.77576
-0.81177
-0.80109
-0.75195
-0.74371
-0.75562
-0.71899
-0.65735
-0.65887
-0.68817
-0.6546
-0.57251
-0.54626
-0.56488
-0.55328
-0.52124
-0.54962
-0.60974
-0.62286
-0.60669
-0.64728
-0.71472
-0.72632
-0.69977
-0.71838
-0.75745
-0.74432
-0.70496
-0.72021
-0.75775
-0.7428
-0.70038
-0.71075
-0.74432
-0.72815
-0.68909
-0.69702
-0.71198
-0.65216
-0.53131
-0.43213
-0.31799
-0.1001
0.20081
0.44403
0.50354
0.30762
-0.11566
-0.59601
-0.86182
-0.8078
-0.62714
-0.54932
-0.57739
-0.59143
-0.58014
-0.60181
-0.62958
-0.60089
-0.55939
-0.57404
-0.6015
-0.56976
-0.52429
-0.53192
-0.55206
-0.51941
-0.47791
-0.4892
-0.50781
-0.46997
-0.42816
-0.44312
-0.46295
-0.42053
-0.36957
-0.37628
-0.39215
-0.35065
-0.30426
-0.31097
-0.32196
-0.27039
-0.21515
-0.21393
-0.21637
-0.16327
-0.11505
-0.12848
-0.14648
-0.10498
-0.069275
-0.092163
-0.11749
-0.088501
-0.075989
-0.13794
-0.21149
-0.22644
-0.24475
-0.31799
-0.39307
-0.40741
-0.42328
-0.48401
-0.53101
-0.50659
-0.48584
-0.52032
-0.55115
-0.52429
-0.50537
-0.53497
-0.55359
-0.50568
-0.47272
-0.49927
-0.52002
-0.47699
-0.44495
-0.46722
-0.48401
-0.44098
-0.41473
-0.4425
-0.46021
-0.4184
-0.3949
-0.42633
-0.44403
-0.401
-0.37964
-0.41443
-0.43793
-0.39642
-0.37384
-0.4071
-0.42816
-0.39215
-0.37689
-0.41046
-0.42725
-0.38239
-0.36377
-0.39978
-0.41931
-0.37903
-0.3653
-0.40222
-0.41901
-0.37323
-0.35187
-0.38269
-0.3952
-0.3421
-0.3064
-0.31464
-0.31097
-0.26184
-0.23956
-0.2475
-0.21942
-0.14191
-0.1181
-0.16235
-0.19379
-0.16693
-0.17365
-0.23102
-0.27008
-0.26093
-0.28351
-0.34576
-0.37018
-0.3302
-0.31952
-0.35583
-0.36896
-0.33051
-0.32684
-0.36316
-0.36774
-0.3186
-0.30823
-0.33936
-0.33722
-0.27588
-0.24628
-0.23773
-0.15656
0.018311
0.19989
0.40649
0.70801
1.0245
1.0703
0.72662
0.19745
-0.22797
-0.42206
-0.39856
-0.25177
-0.11505
-0.11414
-0.19806
-0.23438
-0.19257
-0.17944
-0.20142
-0.19104
-0.14069
-0.13611
-0.16663
-0.15778
-0.10437
-0.10132
-0.1358
-0.12909
-0.076599
-0.072021
-0.097351
-0.076294
-0.014954
-0.0079346
-0.041504
-0.027466
0.038452
0.057068
0.036926
0.06012
0.12207
0.12939
0.10162
0.12329
0.19531
0.22003
0.20386
0.22522
0.28412
0.29419
0.2713
0.28564
0.32562
0.30548
0.25177
0.24689
0.26947
0.22186
0.12848
0.079346
0.075684
0.023804
-0.056763
-0.085449
-0.072937
-0.10651
-0.16388
-0.16022
-0.10498
-0.10651
-0.14526
-0.14435
-0.11169
-0.12634
-0.16388
-0.14679
-0.095215
-0.098572
-0.12817
-0.10529
-0.054321
-0.066223
-0.10468
-0.088196
-0.042114
-0.050659
-0.082703
-0.06012
-0.01709
-0.036621
-0.079346
-0.060425
-0.012512
-0.021667
-0.060425
-0.049744
-0.016174
-0.032959
-0.06073
-0.038452
-0.0064087
-0.031433
-0.058594
-0.026855
0.015259
-0.014954
-0.059814
-0.034485
0.010071
-0.0045776
-0.036926
-0.0042725
0.054932
0.06134
0.039063
0.059204
0.097961
0.11261
0.13184
0.18738
0.21759
0.17212
0.12207
0.13916
0.15472
0.098267
0.022583
0.0088501
0.01709
-0.025635
-0.069885
-0.05249
-0.025024
-0.050659
-0.085144
-0.06012
-0.031433
-0.053711
-0.080261
-0.048523
-0.01709
-0.042419
-0.063171
-0.0177
0.03479
0.06073
0.13794
0.32806
0.56763
0.8078
1.087
1.3632
1.3693
0.97015
0.37903
-0.051575
-0.18311
-0.11963
0.007019
0.11627
0.12878
0.057373
0.010986
0.044861
0.073853
0.045471
0.02655
0.076294
0.1004
0.061035
0.033569
0.08606
0.13306
0.11505
0.095215
0.13641
0.16846
0.14893
0.14038
0.1947
0.2301
0.21606
0.2124
0.2655
0.29327
0.26672
0.26123
0.32532
0.37201
0.36255
0.35919
0.41016
0.43793
0.42419
0.42847
0.48309
0.50201
0.46356
0.44891
0.4953
0.50232
0.43976
0.38391
0.38269
0.35034
0.26978
0.20386
0.19104
0.15106
0.067139
0.019836
0.044556
0.042725
-0.011902
-0.042114
-0.010376
0.0012207
-0.026855
-0.029602
0.018005
0.021973
-0.023804
-0.036926
0.0177
0.038452
0.0039673
-0.0076294
0.039673
0.050659
0.016479
0.014343
0.068359
0.081177
0.036621
0.019226
0.058899
0.062866
0.023804
0.017395
0.068359
0.077515
0.036011
0.021362
0.061646
0.065918
0.02533
0.016174
0.056458
0.051575
0.0076294
0.0015259
0.05249
0.058594
0.015259
0.0054932
0.052185
0.067444
0.049744
0.071716
0.13336
0.13306
0.084839
0.089417
0.17273
0.22308
0.21729
0.21912
0.24628
0.22186
0.16174
0.14282
0.16235
0.12299
0.041504
0.0085449
0.031738
0.015869
-0.029602
-0.02655
0.020447
0.0097656
-0.041199
-0.045776
-0.0012207
-0.0079346
-0.046997
-0.040894
0.0076294
0
-0.037842
-0.011902
0.099792
0.20966
0.3241
0.53436
0.84351
1.1362
1.3184
1.2759
0.93933
0.38208
-0.081787
-0.19348
-0.047607
0.07019
0.068359
0.049133
0.058899
0.0354
-0.0048828
0.010986
0.064087
0.062866
0.032654
0.049133
0.093689
0.080261
0.042419
0.063171
0.11963
0.11719
0.08606
0.10895
0.16144
0.15686
0.12909
0.15808
0.21545
0.21545
0.1886
0.21698
0.27405
0.27435
0.25177
0.28656
0.34515
0.34943
0.3299
0.36346
0.4187
0.41656
0.39551
0.42969
0.47821
0.46173
0.4187
0.42725
0.44342
0.3894
0.3067
0.28076
0.27313
0.20203
0.10986
0.07843
0.074463
0.02533
-0.031433
-0.023804
0.0024414
-0.022888
-0.057983
-0.033875
-0.00061035
-0.026245
-0.062561
-0.038757
-0.005188
-0.029297
-0.06134
-0.028076
0.014343
-0.0027466
-0.030212
0.0027466
0.041504
0.020752
-0.0085449
0.022278
0.054626
0.027466
-0.0039673
0.02655
0.059204
0.031738
-0.0030518
0.021362
0.04364
0.0067139
-0.028076
0.0048828
0.039673
0.015869
-0.012207
0.019531
0.045166
0.011902
-0.021362
0.0082397
0.033875
0.0012207
-0.02594
0.012512
0.042114
0.0097656
-0.022583
0.0097656
0.034485
0.00061035
-0.028687
0.010071
0.040283
0.010986
-0.0094604
0.044556
0.1001
0.093994
0.074158
0.10315
0.1297
0.12848
0.14709
0.21271
0.23712
0.19104
0.15594
0.1825
0.18219
0.11292
0.047913
0.048523
0.042114
-0.0085449
-0.036926
0.0018311
0.020142
-0.020752
-0.052795
-0.024109
-0.013123
-0.047913
-0.063171
-0.015869
0.0033569
-0.032043
-0.044861
0.015869
0.065002
0.090942
0.17456
0.35553
0.55817
0.77728
1.055
1.3013
1.2244
0.77118
0.22095
-0.097961
-0.14465
-0.057068
0.050964
0.12665
0.10498
0.027466
-0.005188
0.039978
0.054016
0.019531
0.012512
0.068359
0.090637
0.060425
0.053711
0.10742
0.12634
0.094604
0.088806
0.14069
0.15503
0.1239
0.12543
0.18433
0.20325
0.17334
0.17853
0.24323
0.26581
0.23682
0.23865
0.29938
0.32196
0.30029
0.31189
0.37872
0.40131
0.37476
0.37994
0.44189
0.46112
0.43121
0.42633
0.46783
0.46661
0.41992
0.40039
0.41321
0.36377
0.2655
0.20508
0.19897
0.15015
0.064392
0.026855
0.049133
0.030212
-0.026855
-0.039978
-0.0012207
-0.0061035
-0.050659
-0.053711
-0.0085449
-0.0079346
-0.042725
-0.032959
0.021362
0.022278
-0.015259
-0.012512
0.033264
0.026245
-0.015869
-0.0082397
0.04425
0.042114
0
-0.00030518
0.040588
0.030212
-0.014343
-0.010986
0.03418
0.02594
-0.016479
-0.011597
0.03418
0.024719
-0.015259
-0.0045776
0.043945
0.031738
-0.017395
-0.015259
0.028687
0.021362
-0.0177
-0.0079346
0.036926
0.025635
-0.015564
-0.0079346
0.033569
0.021667
-0.013733
0.005188
0.05127
0.035095
-0.0079346
0.014648
0.082092
0.097351
0.075989
0.091553
0.13214
0.13031
0.12604
0.18158
0.24689
0.2298
0.17517
0.17181
0.19714
0.16266
0.10101
0.08667
0.090637
0.039673
-0.019531
-0.010986
0.024414
-0.00030518
-0.047302
-0.033264
0.0054932
-0.011292
-0.046692
-0.025024
0.014648
-0.0057983
-0.04303
-0.018005
0.036011
0.046387
0.073547
0.19287
0.35431
0.50476
0.71747
1.0428
1.2936
1.2051
0.784
0.29633
-0.041199
-0.1535
-0.084229
0.068665
0.14954
0.1001
0.02655
0.03418
0.067749
0.049438
0.021667
0.054626
0.093079
0.075684
0.052795
0.092773
0.13336
0.10925
0.082397
0.1239
0.17059
0.15533
0.12756
0.16327
0.20355
0.18555
0.16266
0.20172
0.24445
0.23315
0.22217
0.27374
0.31982
0.30609
0.29236
0.34454
0.39368
0.38269
0.36987
0.42023
0.46204
0.44006
0.41504
0.45258
0.48279
0.45319
0.41382
0.42419
0.41504
0.34485
0.27557
0.26306
0.23438
0.15259
0.08667
0.092163
0.087585
0.030823
-0.010986
0.020142
0.040283
0.0033569
-0.022278
0.0177
0.041504
0.0091553
-0.011292
0.035095
0.061646
0.028992
0.010071
0.06134
0.092773
0.062561
0.039673
0.080566
0.097961
0.059204
0.036011
0.079651
0.10376
0.070496
0.050049
0.093689
0.11444
0.077515
0.05127
0.084534
0.097351
0.065613
0.054626
0.098572
0.1059
0.055237
0.028076
0.06958
0.088501
0.057983
0.044556
0.083923
0.085449
0.038757
0.025635
0.085449
0.11353
0.07843
0.055847
0.084839
0.08667
0.048218
0.043945
0.10406
0.13214
0.10742
0.10376
0.15289
0.17242
0.16144
0.19379
0.27374
0.28778
0.22888
0.19562
0.22736
0.22278
0.16144
0.11963
0.12695
0.095215
0.02533
-0.0021362
0.03479
0.033875
-0.011292
-0.021973
0.02655
0.035095
-0.0021362
-0.012817
0.025635
0.022583
-0.019226
-0.020142
0.036926
0.06073
0.076294
0.17334
0.36713
0.57373
0.80902
1.1185
1.3919
1.3455
0.92834
0.38635
0.0030518
-0.13702
-0.088806
0.048523
0.16296
0.1532
0.07843
0.054932
0.089722
0.085144
0.048523
0.061035
0.12421
0.13428
0.10284
0.10712
0.15594
0.15961
0.13092
0.15198
0.21454
0.22064
0.18311
0.18677
0.23682
0.24506
0.22461
0.25391
0.31982
0.32379
0.289
0.30792
0.38116
0.40558
0.38696
0.40375
0.45898
0.46631
0.44403
0.46906
0.53101
0.53894
0.51331
0.52704
0.56793
0.5481
0.49561
0.48706
0.50079
0.44861
0.36041
0.31982
0.31006
0.24567
0.15839
0.13184
0.14709
0.11749
0.066528
0.067444
0.1004
0.083923
0.05188
0.073547
0.11353
0.090332
0.050354
0.075684
0.12909
0.11597
0.074158
0.09613
0.14862
0.14099
0.10498
0.12573
0.17059
0.15045
0.10071
0.10895
0.15137
0.14313
0.11444
0.13702
0.17517
0.15198
0.10956
0.12665
0.16388
0.14374
0.1062
0.13062
0.17029
0.14984
0.11108
0.13916
0.1828
0.15778
0.10376
0.10651
0.14099
0.13306
0.11444
0.14832
0.19501
0.19287
0.18829
0.23132
0.26428
0.23499
0.22034
0.29541
0.37262
0.35797
0.30273
0.30609
0.33051
0.3006
0.25208
0.24384
0.22766
0.16205
0.10986
0.12695
0.14648
0.10284
0.064087
0.09613
0.13092
0.10345
0.075684
0.10925
0.14038
0.11047
0.072327
0.10345
0.14618
0.15656
0.20203
0.34698
0.52368
0.70374
0.96497
1.333
1.6019
1.5201
1.087
0.5484
0.13214
-0.028076
0.04364
0.21667
0.29419
0.23895
0.1709
0.18066
0.20142
0.17944
0.16602
0.20996
0.23315
0.20233
0.18616
0.23926
0.27679
0.2475
0.2243
0.2655
0.29205
0.2655
0.2536
0.30792
0.34363
0.31494
0.2948
0.34576
0.38361
0.36835
0.36041
0.41534
0.45288
0.43823
0.43427
0.48828
0.51727
0.49835
0.49805
0.55664
0.58533
0.55267
0.5307
0.57098
0.58533
0.54413
0.50781
0.51636
0.48706
0.4007
0.33173
0.3186
0.27344
0.1828
0.1181
0.12238
0.10559
0.050659
0.025635
0.062256
0.065918
0.019531
0.0018311
0.046692
0.063477
0.033264
0.025635
0.069275
0.075378
0.03479
0.021667
0.067749
0.079651
0.046997
0.042419
0.090637
0.094299
0.048523
0.036316
0.081787
0.08728
0.04364
0.030518
0.079346
0.090027
0.053711
0.046692
0.088196
0.086975
0.038757
0.027466
0.073853
0.078735
0.036621
0.023804
0.062561
0.063782
0.026245
0.026245
0.077209
0.082397
0.052795
0.073242
0.15106
0.16724
0.11719
0.10193
0.16754
0.2179
0.22339
0.2359
0.26886
0.24872
0.19409
0.17517
0.1889
0.14252
0.057983
0.027161
0.05249
0.032654
-0.021057
-0.025635
0.019226
0.013123
-0.031433
-0.033264
0.013428
0.010986
-0.030518
-0.030212
0.012817
0.0091553
-0.019531
0.0097656
0.112
0.20508
0.30823
0.51727
0.83862
1.1383
1.3043
1.2286
0.8667
0.31891
-0.11261
-0.19592
-0.036316
0.08667
0.08667
0.06012
0.055542
0.023804
-0.010986
0.013733
0.065613
0.05188
0.0091553
0.02594
0.081787
0.07843
0.040588
0.057983
0.11139
0.11322
0.086365
0.10986
0.16388
0.16022
0.1297
0.1532
0.20782
0.2066
0.17822
0.20111
0.25208
0.25177
0.23682
0.2771
0.33936
0.3421
0.32257
0.35919
0.41656
0.41351
0.38757
0.41382
0.45776
0.44312
0.40741
0.42175
0.44464
0.39856
0.32227
0.29175
0.27191
0.19531
0.10895
0.08606
0.083008
0.024414
-0.04303
-0.042419
-0.015869
-0.035706
-0.065918
-0.037537
-0.0036621
-0.0354
-0.081177
-0.060425
-0.018311
-0.026245
-0.048218
-0.019226
0.012512
-0.012512
-0.042419
-0.011597
0.019226
-0.011902
-0.047302
-0.015869
0.022278
-0.0030518
-0.040588
-0.015564
0.013733
-0.0177
-0.053406
-0.028076
0.0027466
-0.024414
-0.056458
-0.02594
0.0042725
-0.021973
-0.05188
-0.021057
0.007019
-0.023804
-0.057983
-0.028687
-0.007019
-0.040283
-0.069275
-0.027466
0.013733
-0.00061035
-0.0094604
0.046387
0.087891
0.055542
0.023193
0.073853
0.14069
0.15411
0.14893
0.18036
0.18799
0.13672
0.091248
0.10315
0.09491
0.025024
-0.0354
-0.020752
-0.007019
-0.046387
-0.07843
-0.050964
-0.036926
-0.073547
-0.097351
-0.058594
-0.040588
-0.078735
-0.1062
-0.068359
-0.048828
-0.075684
-0.074768
0.018005
0.12421
0.20599
0.34882
0.63263
0.96161
1.1911
1.2003
0.9317
0.43549
-0.050659
-0.24994
-0.1416
0.011597
0.048828
0.019836
0.023804
0.016174
-0.022583
-0.032349
0.021362
0.044861
0.013428
0
0.046692
0.066833
0.0354
0.026855
0.079651
0.1059
0.079651
0.070496
0.11993
0.14221
0.11902
0.11932
0.17426
0.1944
0.16754
0.16907
0.23132
0.25635
0.23102
0.23346
0.30029
0.336
0.32013
0.32715
0.38788
0.40985
0.38391
0.38483
0.4422
0.4599
0.42511
0.41138
0.4422
0.42542
0.354
0.30518
0.30151
0.24963
0.15411
0.098267
0.1062
0.083313
0.020752
-0.0030518
0.027161
0.016174
-0.036316
-0.050964
-0.0045776
0.0045776
-0.028992
-0.0354
0.0045776
0.0039673
-0.028992
-0.020142
0.036621
0.040283
-0.0018311
-0.0057983
0.041504
0.043945
0.0048828
0.0048828
0.05127
0.048523
0.0033569
-0.0018311
0.04364
0.044861
0.010986
0.017395
0.062866
0.051575
0.00091553
-0.0021362
0.045471
0.044556
0.005188
0.007019
0.052185
0.046387
0.0039673
0.0057983
0.052795
0.05127
0.014648
0.018005
0.061951
0.064392
0.044861
0.075073
0.13367
0.1297
0.09552
0.12207
0.20264
0.23071
0.21271
0.2243
0.25665
0.22827
0.16663
0.15076
0.16724
0.12665
0.054321
0.033875
0.057068
0.038757
0.00061035
0.011292
0.046082
0.025024
-0.016785
0
0.048218
0.037231
-0.0021362
0.0088501
0.049744
0.04425
0.02655
0.084229
0.20691
0.31158
0.44098
0.69366
1.0391
1.2961
1.3138
1.0437
0.57526
0.1001
-0.13245
-0.059814
0.11597
0.17365
0.12634
0.1004
0.11169
0.092163
0.064087
0.092468
0.1358
0.12268
0.091858
0.11322
0.15198
0.13733
0.11566
0.1535
0.20233
0.18677
0.15381
0.18127
0.22705
0.21637
0.19257
0.2298
0.28137
0.27802
0.2597
0.3006
0.35126
0.34241
0.32135
0.35889
0.41321
0.41199
0.39612
0.43488
0.47882
0.46936
0.45044
0.48462
0.52155
0.5011
0.46967
0.49255
0.50323
0.44342
0.36713
0.34821
0.336
0.26428
0.18188
0.15717
0.14557
0.1004
0.058899
0.072937
0.081177
0.041809
0.011292
0.04425
0.069885
0.038757
0.016479
0.059814
0.093079
0.059814
0.025635
0.059204
0.098267
0.080872
0.059814
0.091858
0.10895
0.06897
0.037231
0.078125
0.11749
0.10284
0.082092
0.11047
0.1236
0.085754
0.058899
0.091553
0.11017
0.078735
0.063782
0.10834
0.13062
0.091248
0.062866
0.10315
0.13031
0.10254
0.076294
0.1059
0.1181
0.08667
0.074768
0.13031
0.17578
0.16846
0.16052
0.19562
0.21088
0.20233
0.23102
0.31158
0.34363
0.29938
0.26215
0.28381
0.27832
0.21973
0.17426
0.18616
0.16907
0.10254
0.062256
0.090942
0.10406
0.072937
0.061646
0.10529
0.11444
0.075989
0.059509
0.10529
0.11566
0.073853
0.058289
0.11078
0.15076
0.17487
0.2655
0.46234
0.69061
0.94666
1.2598
1.5347
1.4883
1.055
0.48584
0.096436
-0.02655
0.03418
0.1651
0.2713
0.25787
0.17212
0.13367
0.17914
0.19897
0.1709
0.16357
0.21088
0.22766
0.20599
0.21423
0.26306
0.26611
0.22308
0.22461
0.28839
0.31158
0.28412
0.27985
0.32867
0.34607
0.32776
0.33905
0.39276
0.40466
0.38116
0.40131
0.46967
0.49133
0.47058
0.48157
0.54291
0.56549
0.55206
0.57404
0.62744
0.625
0.5835
0.58472
0.63446
0.63019
0.57343
0.54321
0.54504
0.49316
0.39856
0.34515
0.33936
0.29663
0.22369
0.19562
0.21027
0.18097
0.12878
0.12787
0.17059
0.16296
0.12207
0.12817
0.17578
0.16663
0.11902
0.1178
0.16541
0.16968
0.1416
0.15106
0.1947
0.18463
0.14069
0.14893
0.20477
0.21332
0.17548
0.16937
0.19714
0.18005
0.13916
0.1416
0.18127
0.17334
0.13824
0.15045
0.19348
0.18219
0.13885
0.13947
0.16907
0.1532
0.11597
0.12695
0.16754
0.15381
0.12024
0.13855
0.18829
0.1947
0.18219
0.20874
0.24628
0.23468
0.22675
0.28778
0.36224
0.35126
0.2948
0.28442
0.30548
0.27283
0.20935
0.18158
0.16602
0.10803
0.054932
0.071411
0.10956
0.085754
0.039368
0.050049
0.079041
0.054016
0.016479
0.038147
0.079346
0.061646
0.024414
0.043335
0.089417
0.1059
0.1535
0.30334
0.51758
0.74738
1.033
1.3568
1.4972
1.2283
0.67383
0.16846
-0.068359
-0.070801
0.037842
0.15503
0.1828
0.10773
0.035706
0.050659
0.093384
0.085754
0.064697
0.094604
0.12604
0.1059
0.08728
0.13092
0.17334
0.15289
0.12268
0.15289
0.18555
0.16632
0.14526
0.18768
0.23102
0.21667
0.19623
0.23438
0.27679
0.26703
0.25574
0.30151
0.34363
0.33417
0.32776
0.38055
0.4245
0.40649
0.38635
0.42908
0.46783
0.45135
0.42908
0.46204
0.4837
0.44098
0.38879
0.38269
0.3598
0.27954
0.20111
0.17883
0.1474
0.071716
0.014648
0.027771
0.031738
-0.016174
-0.054321
-0.028687
-0.013428
-0.047302
-0.066833
-0.022888
0.005188
-0.024414
-0.046387
-0.0057983
0.022888
-0.0018311
-0.027161
0.0012207
0.015869
-0.0097656
-0.021667
0.018616
0.033264
-0.00030518
-0.018921
0.01709
0.02655
-0.013123
-0.030518
0.014648
0.033264
-0.0045776
-0.030518
0.0039673
0.018005
-0.019226
-0.042419
-0.010986
-0.0018311
-0.035706
-0.047607
-0.0042725
0.0067139
-0.033569
-0.05249
-0.0091553
0.011902
-0.0067139
0.0027466
0.064392
0.081482
0.042419
0.038757
0.11658
0.16998
0.15533
0.13824
0.16296
0.15442
0.10071
0.066528
0.082703
0.059204
-0.015259
-0.06134
-0.042419
-0.045776
-0.088501
-0.10437
-0.065918
-0.062256
-0.10315
-0.11871
-0.079651
-0.070801
-0.1004
-0.10529
-0.063477
-0.056763
-0.080872
-0.048828
0.073547
0.19623
0.31921
0.54077
0.8847
1.1749
1.2314
0.97351
0.50964
0.020752
-0.24902
-0.2121
-0.026855
0.059204
0.016174
-0.031433
-0.018311
-0.022278
-0.052185
-0.049744
-0.0091553
-0.013733
-0.05127
-0.046692
0.0021362
0.0079346
-0.020447
-0.007019
0.048218
0.05249
0.019836
0.029297
0.084229
0.091248
0.059814
0.068665
0.1236
0.13672
0.11444
0.12817
0.17914
0.18677
0.16724
0.19104
0.25055
0.2594
0.2417
0.26978
0.33295
0.33813
0.30548
0.31647
0.36621
0.36163
0.31799
0.30457
0.3183
0.27618
0.20081
0.1651
0.15686
0.096741
0.012512
-0.019836
-0.014954
-0.057678
-0.11719
-0.1236
-0.097046
-0.12115
-0.16266
-0.14252
-0.090027
-0.10071
-0.14252
-0.1355
-0.092773
-0.1001
-0.13367
-0.1181
-0.076599
-0.08667
-0.1181
-0.10162
-0.065613
-0.084229
-0.11932
-0.098572
-0.057373
-0.077515
-0.1178
-0.10254
-0.06134
-0.076599
-0.11536
-0.10345
-0.069275
-0.085449
-0.11627
-0.09552
-0.064087
-0.087585
-0.12512
-0.10498
-0.07019
-0.093384
-0.13
-0.10742
-0.070801
-0.091248
-0.12054
-0.082703
-0.021057
-0.018311
-0.044861
-0.02533
0.020752
0.035095
0.047913
0.098877
0.1355
0.10345
0.058594
0.06958
0.079651
0.020142
-0.055237
-0.067444
-0.059814
-0.095825
-0.13336
-0.11108
-0.082092
-0.11078
-0.14679
-0.12299
-0.092163
-0.11597
-0.14618
-0.11993
-0.092773
-0.1178
-0.13885
-0.090637
-0.021973
0.021667
0.093689
0.2655
0.50751
0.77759
1.0455
1.1993
1.0184
0.51849
0.0024414
-0.22888
-0.19318
-0.087585
-0.015259
0.030212
0.020752
-0.037231
-0.06958
-0.028992
0.005188
-0.016479
-0.033264
0.0097656
0.042725
0.022278
0.007019
0.050049
0.079651
0.055542
0.040588
0.087891
0.12451
0.1059
0.091858
0.13519
0.16907
0.159
0.16022
0.2124
0.24078
0.21729
0.21301
0.27435
0.31586
0.30396
0.30334
0.36774
0.4126
0.39856
0.38849
0.43304
0.46204
0.44189
0.43365
0.47577
0.4834
0.43152
0.38361
0.38727
0.36346
0.28595
0.22186
0.21576
0.18921
0.12207
0.083923
0.11292
0.12177
0.083008
0.060425
0.092163
0.1004
0.065918
0.054626
0.10071
0.11688
0.087891
0.083008
0.13489
0.15808
0.13336
0.12939
0.17548
0.18524
0.14465
0.12939
0.17395
0.19012
0.159
0.14954
0.19409
0.20966
0.18127
0.17151
0.20752
0.21027
0.17883
0.1828
0.23529
0.24506
0.20691
0.19836
0.24231
0.24506
0.20233
0.18921
0.23315
0.24506
0.21667
0.21606
0.26459
0.27435
0.24811
0.26184
0.33142
0.35645
0.33051
0.33081
0.39063
0.42633
0.42694
0.44891
0.49713
0.48706
0.43365
0.41656
0.44373
0.42084
0.35156
0.31891
0.33997
0.32623
0.27985
0.271
0.30884
0.30426
0.26581
0.26581
0.30701
0.30212
0.26337
0.26611
0.31067
0.30365
0.26398
0.27557
0.35492
0.42664
0.49683
0.64636
0.90668
1.2042
1.4722
1.6113
1.4548
0.97504
0.42847
0.13611
0.16266
0.29175
0.37323
0.40833
0.41718
0.3714
0.31616
0.32104
0.3656
0.36377
0.336
0.35309
0.40131
0.39795
0.36591
0.37964
0.42694
0.42419
0.39642
0.4126
0.45563
0.45044
0.42572
0.45319
0.50903
0.5069
0.47882
0.50079
0.5481
0.54596
0.52216
0.55206
0.60852
0.61005
0.58563
0.61066
0.66254
0.66254
0.64056
0.66528
0.70587
0.69061
0.65277
0.66467
0.69214
0.6546
0.58716
0.56213
0.55176
0.48401
0.3952
0.36102
0.35156
0.29449
0.22644
0.21423
0.22888
0.19806
0.15442
0.16113
0.18127
0.15594
0.12634
0.14862
0.17883
0.1532
0.11963
0.14679
0.18127
0.15381
0.11383
0.1358
0.17395
0.15625
0.11902
0.12848
0.14282
0.10956
0.06958
0.092163
0.1239
0.10071
0.065918
0.082092
0.10529
0.07843
0.046082
0.063477
0.082397
0.045166
0.0045776
0.023193
0.047302
0.0177
-0.016479
0.0057983
0.031128
0.0042725
-0.02655
0.0079346
0.05249
0.050964
0.033875
0.058594
0.078125
0.067444
0.079041
0.14587
0.18402
0.14313
0.090027
0.097351
0.098877
0.041809
-0.027466
-0.046692
-0.066528
-0.12024
-0.15564
-0.13092
-0.1181
-0.15961
-0.19867
-0.17578
-0.15991
-0.19684
-0.22827
-0.20447
-0.18829
-0.21667
-0.24017
-0.20416
-0.17609
-0.16907
-0.10437
0.065613
0.28259
0.52307
0.82062
1.1096
1.1362
0.76996
0.19806
-0.26123
-0.46356
-0.44128
-0.31464
-0.1947
-0.18616
-0.26825
-0.32562
-0.30212
-0.28351
-0.3067
-0.31128
-0.27069
-0.26123
-0.30701
-0.33173
-0.2951
-0.27435
-0.29938
-0.30731
-0.26398
-0.25269
-0.28381
-0.29388
-0.24719
-0.22949
-0.2594
-0.27069
-0.23193
-0.22003
-0.24384
-0.24017
-0.18372
-0.16541
-0.19165
-0.19165
-0.13397
-0.10925
-0.13
-0.13519
-0.093079
-0.08606
-0.11932
-0.12054
-0.07843
-0.084839
-0.14893
-0.19562
-0.19348
-0.22949
-0.31677
-0.37903
-0.38971
-0.43701
-0.52429
-0.58411
-0.578
-0.5899
-0.63202
-0.65063
-0.62683
-0.63721
-0.67963
-0.68726
-0.6488
-0.64972
-0.68512
-0.68909
-0.64484
-0.64667
-0.68909
-0.69763
-0.65033
-0.64209
-0.68176
-0.69855
-0.66528
-0.66284
-0.69183
-0.69305
-0.65765
-0.66437
-0.70526
-0.70648
-0.66223
-0.6662
-0.71564
-0.73425
-0.70313
-0.70251
-0.73029
-0.72784
-0.69672
-0.71564
-0.75806
-0.75348
-0.7016
-0.70068
-0.73975
-0.74402
-0.71014
-0.71411
-0.73547
-0.70709
-0.64148
-0.64392
-0.69427
-0.69519
-0.62897
-0.59082
-0.59326
-0.58319
-0.55481
-0.57831
-0.62988
-0.6424
-0.62286
-0.66376
-0.73883
-0.76874
-0.75409
-0.77698
-0.82642
-0.83588
-0.80719
-0.82275
-0.85815
-0.84991
-0.81238
-0.82031
-0.85236
-0.84198
-0.802
-0.80963
-0.82794
-0.79193
-0.7016
-0.6134
-0.49591
-0.27008
0.046692
0.35492
0.57068
0.55511
0.2063
-0.39429
-0.89874
-1.0294
-0.88196
-0.74341
-0.72906
-0.75623
-0.77087
-0.80109
-0.82214
-0.79193
-0.75348
-0.7724
-0.8075
-0.78735
-0.74677
-0.75409
-0.77057
-0.73853
-0.69885
-0.72205
-0.75775
-0.73273
-0.6839
-0.6842
-0.69946
-0.66559
-0.6189
-0.62744
-0.65186
-0.62408
-0.578
-0.5722
-0.57922
-0.53833
-0.49133
-0.49255
-0.49805
-0.45319
-0.40863
-0.42297
-0.44525
-0.41138
-0.37109
-0.3894
-0.42603
-0.41565
-0.40375
-0.45166
-0.52094
-0.54932
-0.57922
-0.65826
-0.737
-0.75623
-0.77271
-0.8313
-0.88531
-0.87555
-0.8609
-0.89722
-0.9314
-0.90302
-0.87189
-0.89783
-0.92804
-0.89874
-0.86639
-0.8844
-0.90302
-0.86975
-0.84076
-0.8667
-0.89447
-0.86334
-0.83618
-0.85968
-0.88348
-0.85541
-0.83496
-0.85938
-0.87769
-0.84351
-0.82642
-0.86334
-0.88837
-0.84686
-0.81665
-0.84564
-0.87921
-0.85388
-0.83313
-0.85724
-0.88013
-0.85083
-0.8371
-0.86823
-0.88989
-0.8551
-0.8313
-0.85663
-0.8725
-0.83374
-0.81085
-0.83557
-0.8548
-0.81177
-0.77087
-0.76599
-0.75653
-0.71808
-0.71625
-0.74921
-0.73639
-0.6488
-0.59845
-0.62683
-0.65948
-0.63629
-0.62988
-0.6781
-0.72357
-0.72479
-0.75134
-0.81757
-0.85632
-0.82733
-0.81482
-0.84747
-0.86487
-0.8316
-0.81604
-0.83984
-0.84961
-0.81726
-0.81604
-0.84839
-0.85205
-0.80322
-0.78339
-0.78705
-0.72113
-0.55664
-0.383
-0.19165
0.097046
0.44403
0.59387
0.35645
-0.14709
-0.63263
-0.91339
-0.94208
-0.81116
-0.66956
-0.65491
-0.72784
-0.76813
-0.73517
-0.72418
-0.75134
-0.75439
-0.71136
-0.70404
-0.73151
-0.7251
-0.66833
-0.65369
-0.68695
-0.69244
-0.64362
-0.62317
-0.64087
-0.63354
-0.58441
-0.57159
-0.59265
-0.58228
-0.52734
-0.51239
-0.53253
-0.51788
-0.46143
-0.44678
-0.46448
-0.44342
-0.37445
-0.35126
-0.36835
-0.35187
-0.29327
-0.28198
-0.30975
-0.30151
-0.25238
-0.25635
-0.30823
-0.33508
-0.32623
-0.36865
-0.45288
-0.50446
-0.51514
-0.56976
-0.65125
-0.68512
-0.67017
-0.69305
-0.74432
-0.7489
-0.70984
-0.71533
-0.75775
-0.76355
-0.7251
-0.72601
-0.75195
-0.73761
-0.68909
-0.6842
-0.70984
-0.6955
-0.65186
-0.66101
-0.69794
-0.68726
-0.63904
-0.64056
-0.67474
-0.66589
-0.62195
-0.62714
-0.66284
-0.65765
-0.62164
-0.6311
-0.66223
-0.64728
-0.60669
-0.61859
-0.6546
-0.64117
-0.60059
-0.6131
-0.64758
-0.63141
-0.58777
-0.59784
-0.63293
-0.61798
-0.57587
-0.58228
-0.61127
-0.59479
-0.55847
-0.57526
-0.60974
-0.59174
-0.55237
-0.56671
-0.59998
-0.57495
-0.51697
-0.50323
-0.50751
-0.47699
-0.44525
-0.46417
-0.47485
-0.40527
-0.31982
-0.31555
-0.35492
-0.35522
-0.33813
-0.37354
-0.42603
-0.43152
-0.42999
-0.48157
-0.53589
-0.52399
-0.49255
-0.51483
-0.55023
-0.53192
-0.50049
-0.52124
-0.54962
-0.52185
-0.48523
-0.50446
-0.53467
-0.50568
-0.45929
-0.45563
-0.43243
-0.31555
-0.15625
-0.00030518
0.22003
0.5542
0.83466
0.81421
0.45471
-0.031433
-0.42664
-0.59906
-0.54962
-0.38818
-0.2948
-0.33295
-0.39581
-0.38635
-0.35828
-0.37689
-0.40131
-0.36865
-0.33417
-0.34882
-0.36163
-0.31891
-0.28412
-0.3064
-0.32684
-0.28748
-0.25482
-0.27832
-0.29938
-0.25787
-0.21759
-0.22827
-0.23407
-0.1828
-0.14069
-0.15076
-0.15808
-0.10773
-0.071411
-0.090027
-0.10162
-0.048523
-0.00061035
-0.007019
-0.012512
0.0354
0.070496
0.054016
0.043335
0.087585
0.11414
0.083313
0.054321
0.071106
0.059814
-0.013123
-0.085449
-0.10437
-0.13824
-0.21637
-0.27313
-0.26794
-0.27679
-0.32867
-0.36011
-0.33325
-0.32806
-0.37048
-0.39215
-0.34882
-0.32532
-0.35309
-0.36743
-0.32349
-0.29999
-0.32349
-0.33234
-0.28992
-0.27802
-0.31189
-0.32043
-0.26947
-0.24719
-0.2832
-0.30182
-0.26154
-0.24658
-0.28076
-0.2951
-0.25146
-0.23499
-0.26794
-0.28259
-0.24445
-0.23804
-0.2771
-0.2887
-0.23865
-0.21942
-0.25146
-0.2655
-0.22888
-0.22308
-0.26123
-0.27252
-0.2298
-0.22125
-0.25757
-0.26459
-0.21759
-0.20538
-0.24017
-0.2478
-0.20081
-0.1889
-0.22003
-0.21698
-0.14984
-0.11383
-0.12726
-0.12421
-0.074768
-0.045776
-0.041199
-0.0091553
0.050659
0.046997
-0.0082397
-0.030212
-0.0027466
-0.019531
-0.084839
-0.12207
-0.10864
-0.12817
-0.177
-0.18738
-0.14984
-0.15411
-0.1944
-0.19562
-0.14832
-0.14496
-0.18311
-0.18524
-0.13977
-0.13885
-0.17365
-0.16724
-0.10529
-0.06073
-0.018005
0.095825
0.30212
0.54352
0.8197
1.0907
1.1691
0.85815
0.3067
-0.13733
-0.27069
-0.20416
-0.1004
-0.022888
0.0085449
-0.039368
-0.10315
-0.098572
-0.044861
-0.040894
-0.073242
-0.062256
-0.010071
-0.0054932
-0.032959
-0.018921
0.029907
0.029297
-0.00061035
0.014038
0.064087
0.065918
0.040283
0.061035
0.11475
0.11383
0.08606
0.1059
0.16113
0.16846
0.15045
0.1828
0.24689
0.25665
0.23804
0.26245
0.31677
0.32379
0.30945
0.34058
0.3894
0.38147
0.35034
0.3714
0.4129
0.39032
0.33478
0.32104
0.32227
0.26398
0.18402
0.15533
0.15015
0.091248
0.018616
0.0085449
0.02655
-0.0036621
-0.049744
-0.039673
-0.0061035
-0.023804
-0.055847
-0.032959
0.0073242
-0.0079346
-0.041199
-0.023804
0.0091553
-0.0057983
-0.029297
0.0057983
0.048523
0.026855
-0.013428
0.0048828
0.041504
0.024414
-0.0064087
0.015564
0.049133
0.027771
-0.0048828
0.017395
0.049744
0.029907
0.0018311
0.029907
0.061951
0.036926
0.0048828
0.031738
0.064392
0.039368
0.005188
0.029297
0.059814
0.037537
0.0079346
0.033875
0.06012
0.033264
0.0076294
0.042725
0.07782
0.055542
0.028687
0.058289
0.08606
0.061646
0.049744
0.11017
0.16937
0.15808
0.13
0.16663
0.224
0.2417
0.2475
0.28503
0.29907
0.25726
0.22095
0.2359
0.23102
0.16205
0.1004
0.10742
0.11322
0.068359
0.031738
0.06073
0.085449
0.057373
0.033569
0.066223
0.082397
0.046692
0.019531
0.053711
0.075989
0.049744
0.046997
0.11902
0.20294
0.26764
0.37811
0.60791
0.89722
1.1707
1.3553
1.3092
0.92712
0.36957
-0.028076
-0.075989
0.053711
0.15106
0.177
0.18555
0.15961
0.11139
0.10529
0.16327
0.19196
0.16266
0.14923
0.19409
0.21484
0.18463
0.17609
0.22827
0.25513
0.22949
0.21973
0.26886
0.29236
0.26611
0.25757
0.30609
0.33386
0.31616
0.31769
0.36957
0.3952
0.3772
0.38452
0.44403
0.47119
0.4538
0.45807
0.51697
0.54077
0.51605
0.51697
0.57159
0.59357
0.5658
0.55084
0.57922
0.56915
0.51239
0.47729
0.48279
0.44342
0.35675
0.29968
0.2948
0.25391
0.17609
0.13824
0.16846
0.16937
0.12604
0.10773
0.1413
0.14038
0.10376
0.098572
0.14587
0.15503
0.12512
0.12543
0.17517
0.18066
0.14191
0.13489
0.17548
0.17426
0.13214
0.12878
0.17609
0.17914
0.13885
0.13763
0.18768
0.1947
0.15289
0.14038
0.16937
0.15869
0.11932
0.12329
0.16998
0.16632
0.12665
0.12665
0.16968
0.16296
0.11658
0.11475
0.16235
0.1651
0.12573
0.11902
0.15289
0.14648
0.11017
0.11169
0.15686
0.15778
0.13397
0.15686
0.22034
0.23041
0.19562
0.19928
0.25299
0.27893
0.28412
0.31982
0.37018
0.3479
0.28839
0.27832
0.3067
0.28412
0.21423
0.17822
0.18005
0.14404
0.09491
0.099487
0.13489
0.12451
0.08728
0.096436
0.12878
0.10223
0.054016
0.064697
0.11261
0.11078
0.081787
0.10315
0.15747
0.19684
0.26825
0.44495
0.7135
0.99213
1.268
1.4816
1.4163
0.979
0.39673
0.020752
-0.033569
0.058289
0.14801
0.20538
0.21179
0.159
0.1123
0.13641
0.18005
0.16693
0.13428
0.15869
0.20172
0.1886
0.15808
0.18372
0.22705
0.2243
0.20538
0.23346
0.27679
0.26642
0.24658
0.27924
0.3183
0.30121
0.2771
0.31799
0.37476
0.37567
0.35767
0.3952
0.44556
0.4422
0.42755
0.46783
0.52429
0.52551
0.51117
0.5484
0.59021
0.58075
0.55481
0.57251
0.58502
0.54077
0.4837
0.47729
0.46509
0.3949
0.31952
0.2951
0.26703
0.18738
0.11597
0.1181
0.13336
0.098572
0.062561
0.082703
0.10223
0.072632
0.045166
0.080872
0.11169
0.088196
0.067139
0.10468
0.13916
0.11383
0.085754
0.11292
0.13275
0.1001
0.079041
0.11963
0.15137
0.13031
0.11536
0.15289
0.17242
0.13306
0.098572
0.12817
0.14496
0.10864
0.083923
0.11871
0.14313
0.11597
0.091553
0.12421
0.13824
0.10345
0.081177
0.11841
0.13794
0.10681
0.08728
0.13062
0.16449
0.15442
0.16266
0.2121
0.2243
0.18677
0.1886
0.27496
0.3363
0.3183
0.28809
0.30853
0.30853
0.25635
0.20935
0.21149
0.18677
0.11627
0.076294
0.10956
0.12939
0.090637
0.059814
0.081177
0.089417
0.06012
0.044556
0.081787
0.089111
0.051575
0.033569
0.075989
0.10468
0.097961
0.13458
0.26794
0.42603
0.61096
0.89447
1.2708
1.5274
1.4551
1.0464
0.50964
0.056458
-0.13062
-0.039673
0.15381
0.22461
0.15808
0.097961
0.11353
0.12054
0.095215
0.099487
0.15472
0.16693
0.12756
0.12177
0.17395
0.19531
0.16876
0.16693
0.20721
0.2121
0.18555
0.19257
0.24597
0.25909
0.23743
0.2536
0.3125
0.31738
0.27985
0.28381
0.34607
0.37872
0.37079
0.38635
0.43671
0.44769
0.43945
0.47363
0.54047
0.54688
0.50934
0.5069
0.54443
0.52826
0.47211
0.45563
0.47913
0.44464
0.35889
0.30212
0.28778
0.23071
0.14404
0.10742
0.12177
0.099792
0.039673
0.013733
0.031738
0.016479
-0.014343
-0.0033569
0.036621
0.023499
-0.018005
-0.0048828
0.05188
0.053101
0.015564
0.016479
0.058594
0.061035
0.033569
0.041809
0.074768
0.056458
0.018311
0.031128
0.077515
0.064087
0.016785
0.01709
0.057373
0.054932
0.022888
0.031738
0.06134
0.039978
-0.0021362
0.0057983
0.04425
0.027161
-0.01709
-0.0067139
0.032959
0.025024
-0.0045776
0.01709
0.069275
0.073242
0.054932
0.07782
0.11444
0.10162
0.092468
0.15381
0.22614
0.22034
0.17395
0.17365
0.19714
0.15686
0.082703
0.049744
0.040894
-0.0024414
-0.046997
-0.035095
-0.010071
-0.041199
-0.085754
-0.072327
-0.041199
-0.060425
-0.091858
-0.066223
-0.028076
-0.047302
-0.081482
-0.058289
-0.015564
-0.014038
0.014648
0.15015
0.34576
0.55115
0.82001
1.1719
1.413
1.2756
0.78766
0.23529
-0.12268
-0.2124
-0.10895
0.047607
0.11078
0.049438
-0.02655
-0.021057
0.010071
-0.0012207
-0.021667
0.0061035
0.0354
0.0177
0.0021362
0.04303
0.077209
0.054016
0.030823
0.071716
0.11322
0.096741
0.076599
0.11444
0.15015
0.13092
0.11261
0.1593
0.20752
0.19653
0.18066
0.22339
0.26459
0.26001
0.26001
0.31677
0.36011
0.34668
0.33569
0.383
0.41931
0.39307
0.36835
0.39948
0.41626
0.37323
0.32532
0.32867
0.30975
0.22614
0.14648
0.12787
0.1062
0.034485
-0.032043
-0.032654
-0.036621
-0.080872
-0.11047
-0.080872
-0.06897
-0.10681
-0.13458
-0.098877
-0.079041
-0.10834
-0.12329
-0.075378
-0.044861
-0.06958
-0.089417
-0.05249
-0.028992
-0.052185
-0.065308
-0.030212
-0.024109
-0.061646
-0.076904
-0.031128
-0.0097656
-0.04364
-0.067139
-0.03418
-0.021973
-0.055542
-0.072327
-0.03418
-0.023193
-0.058899
-0.076599
-0.039063
-0.025635
-0.057373
-0.06958
-0.028381
-0.016479
-0.050354
-0.064697
-0.029907
-0.029602
-0.073547
-0.088196
-0.04425
-0.030518
-0.063782
-0.071411
-0.012512
0.023804
0.016174
0.020447
0.061646
0.068665
0.05249
0.082703
0.16205
0.18555
0.14648
0.12573
0.1532
0.1355
0.066528
0.019531
0.026245
0.00030518
-0.058899
-0.084229
-0.056763
-0.057983
-0.089722
-0.089417
-0.045166
-0.049133
-0.096436
-0.10712
-0.065613
-0.058289
-0.08728
-0.083008
-0.027466
-0.005188
0.010376
0.10529
0.28381
0.47272
0.69336
0.99579
1.2613
1.2057
0.78339
0.25116
-0.1004
-0.20203
-0.13336
-0.0045776
0.080872
0.048828
-0.032654
-0.056458
-0.0177
-0.014343
-0.04425
-0.037537
0.0094604
0.012817
-0.016785
-0.0042725
0.046692
0.049744
0.021973
0.036621
0.089417
0.090332
0.055542
0.062256
0.11322
0.12238
0.10284
0.12177
0.17303
0.17792
0.15717
0.18219
0.23987
0.2478
0.2298
0.26031
0.32379
0.33478
0.31128
0.33142
0.38727
0.3952
0.37384
0.38696
0.41962
0.39734
0.34912
0.34302
0.35065
0.29327
0.20538
0.16418
0.14984
0.081482
-0.0042725
-0.025635
-0.0057983
-0.030212
-0.07843
-0.077515
-0.049744
-0.067139
-0.10132
-0.085144
-0.04425
-0.056458
-0.085449
-0.063171
-0.018921
-0.027466
-0.055847
-0.037537
-0.005188
-0.026245
-0.058899
-0.034485
0.0073242
-0.010376
-0.046387
-0.026245
0.012207
-0.0045776
-0.040283
-0.025024
0.0045776
-0.016785
-0.050659
-0.030212
0.0015259
-0.021973
-0.056763
-0.03418
-0.0018311
-0.024719
-0.059204
-0.036621
-0.0018311
-0.022278
-0.054321
-0.032043
-0.0018311
-0.023804
-0.053406
-0.025024
0.0088501
-0.013733
-0.045776
-0.022583
0.0082397
-0.0054932
-0.015869
0.038757
0.089111
0.066833
0.028992
0.06012
0.12238
0.14893
0.15869
0.19653
0.21149
0.16449
0.11444
0.11932
0.11749
0.059509
0.0027466
0.0097656
0.020447
-0.019836
-0.058899
-0.037842
-0.016479
-0.045776
-0.074463
-0.045166
-0.021362
-0.049438
-0.075073
-0.04303
-0.019836
-0.046387
-0.059509
0.0039673
0.092468
0.16052
0.26398
0.48767
0.78949
1.0785
1.2576
1.1853
0.78461
0.23407
-0.13885
-0.16541
-0.029907
0.054932
0.064087
0.06958
0.05249
0.0036621
-0.0177
0.02533
0.05127
0.025635
0.0088501
0.049438
0.075684
0.057373
0.050354
0.093689
0.112
0.083923
0.076294
0.12817
0.15594
0.13092
0.12054
0.16815
0.19562
0.17548
0.16876
0.21515
0.23956
0.21973
0.22247
0.28351
0.31586
0.3009
0.30365
0.3595
0.38544
0.36255
0.35706
0.4071
0.42725
0.39795
0.38757
0.42542
0.42053
0.35797
0.30792
0.30914
0.27588
0.19257
0.13
0.12329
0.093689
0.027771
-0.0042725
0.021667
0.015869
-0.033569
-0.05249
-0.016174
-0.0097656
-0.04425
-0.050354
-0.0057983
0.0021362
-0.030823
-0.033875
0.014038
0.023499
-0.010681
-0.014648
0.028381
0.031433
-0.005188
-0.0091553
0.0354
0.038452
-0.00061035
-0.0064087
0.0354
0.033569
-0.0085449
-0.013428
0.033264
0.039673
0.0027466
-0.0030518
0.036926
0.035095
-0.0015259
-0.0024414
0.042114
0.04364
0.0061035
0.0033569
0.042725
0.038757
-0.0012207
-0.0027466
0.038147
0.033264
-0.0057983
-0.0033569
0.041199
0.039368
0.0073242
0.025635
0.093384
0.11108
0.081482
0.084229
0.13428
0.15839
0.16113
0.19592
0.24658
0.2301
0.17365
0.15472
0.16998
0.13428
0.067749
0.045166
0.058899
0.028992
-0.023193
-0.023804
0.015564
0.0061035
-0.033875
-0.032043
0.0039673
-0.0073242
-0.042725
-0.030212
0.014038
0.0088501
-0.020447
0.0018311
0.067444
0.11597
0.17609
0.32104
0.55176
0.8136
1.0849
1.2888
1.2155
0.78278
0.23438
-0.095825
-0.11627
-0.010071
0.078735
0.13092
0.13824
0.084534
0.036926
0.06073
0.10773
0.096436
0.062256
0.082397
0.12756
0.12177
0.099182
0.12878
0.17609
0.16632
0.13916
0.16754
0.22003
0.22156
0.20386
0.23499
0.27863
0.26978
0.24719
0.27954
0.32623
0.31891
0.30121
0.34149
0.39825
0.40314
0.39276
0.43427
0.48401
0.47821
0.46051
0.49286
0.53345
0.52063
0.49896
0.52643
0.55328
0.5191
0.47089
0.46783
0.45837
0.38666
0.30792
0.29022
0.28137
0.22369
0.16449
0.16357
0.16907
0.12817
0.089722
0.11322
0.13794
0.11108
0.084534
0.1181
0.1535
0.13519
0.1123
0.14282
0.16846
0.14221
0.11963
0.15747
0.18921
0.16663
0.1413
0.17242
0.19745
0.16785
0.13947
0.1709
0.19623
0.1709
0.14587
0.17395
0.19287
0.16266
0.13794
0.16693
0.18005
0.14191
0.11749
0.15747
0.18616
0.15808
0.13184
0.15961
0.17212
0.13824
0.11749
0.159
0.18158
0.15076
0.12909
0.16449
0.18066
0.14526
0.12177
0.15808
0.17853
0.15747
0.15686
0.21759
0.24841
0.21851
0.2005
0.25665
0.30701
0.30853
0.30457
0.33844
0.33844
0.28564
0.24628
0.25909
0.24536
0.18158
0.13031
0.13519
0.11871
0.064697
0.041809
0.082092
0.095215
0.056152
0.032349
0.064392
0.072021
0.035706
0.020142
0.055542
0.061951
0.032959
0.037537
0.11749
0.20264
0.27588
0.40802
0.65002
0.92957
1.1569
1.2289
1.0278
0.55054
0.046692
-0.18555
-0.10437
0.040894
0.08667
0.06897
0.064087
0.039063
-0.00030518
-0.0036621
0.038147
0.036621
-0.0024414
-0.0054932
0.043335
0.053406
0.021667
0.019836
0.063171
0.063782
0.025635
0.024109
0.073242
0.082703
0.050049
0.048523
0.09552
0.10223
0.072327
0.074768
0.12177
0.13153
0.10986
0.12665
0.18433
0.19226
0.16052
0.16357
0.21454
0.2179
0.1889
0.1947
0.24536
0.2478
0.21362
0.20874
0.23865
0.20966
0.14038
0.097656
0.089111
0.028076
-0.062561
-0.11139
-0.11688
-0.16724
-0.23926
-0.26337
-0.24353
-0.26672
-0.31799
-0.32227
-0.28625
-0.29663
-0.33722
-0.33691
-0.30151
-0.31036
-0.34668
-0.34149
-0.30304
-0.30914
-0.33997
-0.33386
-0.30396
-0.32471
-0.36163
-0.34851
-0.30731
-0.32593
-0.37231
-0.36987
-0.33539
-0.35034
-0.39185
-0.38635
-0.35217
-0.37109
-0.41473
-0.41199
-0.38391
-0.40222
-0.43884
-0.42816
-0.39551
-0.41565
-0.45685
-0.44739
-0.41534
-0.43365
-0.46967
-0.46082
-0.4364
-0.46143
-0.49622
-0.46844
-0.41534
-0.41229
-0.43457
-0.41962
-0.39063
-0.39734
-0.39215
-0.32745
-0.26978
-0.2951
-0.35217
-0.35614
-0.34332
-0.38849
-0.45654
-0.47791
-0.48767
-0.54504
-0.60455
-0.59692
-0.56885
-0.59357
-0.63324
-0.62195
-0.59479
-0.61707
-0.65338
-0.64056
-0.61829
-0.64087
-0.66589
-0.63629
-0.59967
-0.60272
-0.57159
-0.43732
-0.25543
-0.067444
0.18341
0.50537
0.6955
0.51117
0.021362
-0.48737
-0.79773
-0.86182
-0.75806
-0.60638
-0.54626
-0.60028
-0.66528
-0.65643
-0.63843
-0.66559
-0.68634
-0.64697
-0.61066
-0.63049
-0.6543
-0.62317
-0.59357
-0.61279
-0.63019
-0.59723
-0.57404
-0.59845
-0.61768
-0.578
-0.54352
-0.5603
-0.57373
-0.53223
-0.49835
-0.51239
-0.52216
-0.47974
-0.44525
-0.45197
-0.45074
-0.39825
-0.36957
-0.39154
-0.40375
-0.35675
-0.32196
-0.336
-0.35004
-0.31616
-0.30609
-0.34515
-0.37659
-0.36591
-0.39124
-0.47546
-0.54932
-0.56244
-0.5899
-0.66559
-0.72876
-0.73578
-0.75592
-0.80872
-0.83527
-0.80231
-0.79163
-0.82947
-0.85022
-0.8139
-0.79559
-0.82306
-0.83557
-0.80109
-0.79224
-0.82306
-0.83099
-0.78735
-0.77881
-0.82062
-0.83832
-0.79468
-0.77484
-0.80505
-0.82306
-0.78979
-0.78491
-0.82031
-0.83405
-0.79803
-0.79254
-0.82886
-0.8432
-0.80261
-0.79315
-0.82764
-0.84259
-0.81085
-0.80994
-0.84534
-0.85449
-0.81635
-0.81299
-0.84656
-0.85358
-0.81482
-0.8139
-0.85083
-0.85114
-0.79285
-0.76172
-0.77362
-0.77118
-0.73334
-0.72723
-0.73822
-0.70557
-0.63568
-0.62531
-0.67566
-0.70068
-0.67596
-0.68817
-0.74036
-0.7724
-0.76752
-0.80383
-0.86548
-0.88287
-0.849
-0.8551
-0.89844
-0.90515
-0.86456
-0.86151
-0.88837
-0.8844
-0.84106
-0.84381
-0.87738
-0.86792
-0.80872
-0.77698
-0.74554
-0.63477
-0.43335
-0.2063
0.065308
0.37933
0.58258
0.41351
-0.089111
-0.62714
-0.92499
-0.96741
-0.86884
-0.74188
-0.67291
-0.71777
-0.79529
-0.80811
-0.7605
-0.74768
-0.76721
-0.75012
-0.70465
-0.71045
-0.74219
-0.72723
-0.67261
-0.66284
-0.68848
-0.67505
-0.62744
-0.62012
-0.64056
-0.62073
-0.56915
-0.56122
-0.57953
-0.5603
-0.51392
-0.51208
-0.52856
-0.49622
-0.43304
-0.42145
-0.43457
-0.40436
-0.34546
-0.33264
-0.3418
-0.31403
-0.26733
-0.27161
-0.2948
-0.27161
-0.24048
-0.27008
-0.32623
-0.33997
-0.34149
-0.40985
-0.50171
-0.54138
-0.55115
-0.6076
-0.67749
-0.69672
-0.68573
-0.71503
-0.75653
-0.74463
-0.71869
-0.73975
-0.77026
-0.74768
-0.71014
-0.72235
-0.74493
-0.71594
-0.6781
-0.69489
-0.72418
-0.69794
-0.65979
-0.67169
-0.69885
-0.67444
-0.64117
-0.65887
-0.68207
-0.6543
-0.62073
-0.64148
-0.67413
-0.65125
-0.62042
-0.64178
-0.67017
-0.64514
-0.6189
-0.64606
-0.67993
-0.65094
-0.60944
-0.62134
-0.64667
-0.62866
-0.60822
-0.62714
-0.62744
-0.55573
-0.49866
-0.52277
-0.56793
-0.53711
-0.47455
-0.45166
-0.44434
-0.40131
-0.37598
-0.41321
-0.45624
-0.44373
-0.43823
-0.49835
-0.56854
-0.58319
-0.58258
-0.61462
-0.63324
-0.59601
-0.57587
-0.61249
-0.64301
-0.60944
-0.58258
-0.6131
-0.64209
-0.61035
-0.58411
-0.60394
-0.61188
-0.55084
-0.46783
-0.38513
-0.24536
0.005188
0.3009
0.58502
0.80505
0.81207
0.44891
-0.15533
-0.63507
-0.73486
-0.59998
-0.47028
-0.42572
-0.41656
-0.44342
-0.49866
-0.5188
-0.4715
-0.44891
-0.48004
-0.49561
-0.448
-0.40863
-0.41962
-0.42664
-0.38696
-0.37018
-0.39703
-0.40009
-0.3476
-0.31799
-0.33386
-0.33142
-0.2771
-0.25726
-0.28595
-0.2887
-0.22217
-0.17914
-0.18738
-0.18524
-0.12543
-0.091553
-0.10651
-0.10315
-0.047302
-0.016174
-0.031738
-0.028992
0.02533
0.05127
0.031128
0.022278
0.054016
0.039673
-0.022583
-0.065613
-0.07782
-0.13824
-0.24536
-0.31158
-0.30823
-0.33569
-0.40619
-0.44464
-0.41962
-0.41931
-0.45074
-0.45197
-0.4071
-0.40344
-0.44678
-0.45624
-0.41046
-0.40039
-0.43854
-0.44861
-0.40344
-0.38879
-0.41199
-0.41016
-0.36621
-0.36591
-0.40039
-0.39856
-0.34363
-0.33264
-0.36713
-0.37323
-0.32806
-0.32623
-0.36224
-0.3656
-0.32471
-0.3241
-0.35675
-0.35431
-0.30853
-0.31525
-0.36591
-0.37537
-0.33173
-0.32501
-0.34882
-0.34515
-0.30853
-0.31708
-0.34302
-0.30975
-0.21942
-0.18921
-0.22339
-0.23712
-0.19989
-0.1712
-0.15167
-0.10925
-0.066223
-0.092163
-0.15411
-0.16754
-0.14679
-0.18433
-0.25726
-0.28992
-0.27832
-0.30029
-0.34271
-0.33569
-0.29419
-0.3006
-0.33661
-0.33142
-0.29663
-0.30914
-0.34332
-0.33325
-0.29572
-0.3064
-0.33356
-0.3009
-0.21942
-0.15167
-0.059509
0.12512
0.40375
0.70343
0.98541
1.1523
0.99213
0.46692
-0.12909
-0.42877
-0.38818
-0.24933
-0.17883
-0.16052
-0.16815
-0.21851
-0.26154
-0.23407
-0.17944
-0.18097
-0.21179
-0.2005
-0.17029
-0.18494
-0.20172
-0.15625
-0.094299
-0.096436
-0.12756
-0.10986
-0.068054
-0.073853
-0.090942
-0.054932
-0.0064087
-0.0091553
-0.027466
0.007019
0.054626
0.050659
0.037537
0.088501
0.15656
0.16357
0.14557
0.17487
0.21851
0.21576
0.2063
0.25116
0.30334
0.29449
0.26489
0.28259
0.29846
0.24628
0.17273
0.14679
0.12695
0.048218
-0.042114
-0.074158
-0.089111
-0.14526
-0.20111
-0.19562
-0.18066
-0.21271
-0.24292
-0.21606
-0.19104
-0.21942
-0.24353
-0.2005
-0.16022
-0.18341
-0.21637
-0.18951
-0.15656
-0.17181
-0.1889
-0.15381
-0.13062
-0.16357
-0.19165
-0.15503
-0.12207
-0.14496
-0.17029
-0.13947
-0.1123
-0.13763
-0.16144
-0.12848
-0.11017
-0.14374
-0.17212
-0.1358
-0.10406
-0.12665
-0.15167
-0.12665
-0.11353
-0.14496
-0.16357
-0.12268
-0.1001
-0.13275
-0.1535
-0.11475
-0.091248
-0.12054
-0.14313
-0.10498
-0.083618
-0.11261
-0.12878
-0.077209
-0.033875
-0.040894
-0.050354
-0.015564
0.0021362
-0.0054932
0.022278
0.10284
0.13794
0.09613
0.057678
0.075684
0.07019
0.011292
-0.0354
-0.027466
-0.04364
-0.10498
-0.1416
-0.11047
-0.09552
-0.12573
-0.13947
-0.10254
-0.09613
-0.13733
-0.15625
-0.11169
-0.092163
-0.12024
-0.1297
-0.080261
-0.047913
-0.032349
0.047607
0.22156
0.41626
0.63751
0.93719
1.2274
1.2302
0.84473
0.30304
-0.083618
-0.2124
-0.15656
-0.032349
0.061035
0.039978
-0.039368
-0.067749
-0.023804
-0.010071
-0.04364
-0.050354
-0.0064087
0.0030518
-0.027161
-0.022583
0.033264
0.048218
0.017395
0.020142
0.076294
0.092468
0.063171
0.06012
0.10803
0.12512
0.10773
0.12512
0.18188
0.19165
0.16571
0.18463
0.25665
0.28076
0.2597
0.26886
0.32867
0.34882
0.33478
0.35583
0.41718
0.42694
0.3949
0.39886
0.44281
0.43793
0.38971
0.36926
0.3775
0.33051
0.24384
0.19501
0.18433
0.12421
0.036926
0.00061035
0.015259
-0.012817
-0.07019
-0.078735
-0.039063
-0.039063
-0.07019
-0.063171
-0.021973
-0.028381
-0.062866
-0.054321
-0.011597
-0.01709
-0.050659
-0.039978
0.0018311
-0.010376
-0.050659
-0.045166
-0.0036621
-0.0079346
-0.039368
-0.028076
0.011292
-0.0027466
-0.039368
-0.027771
0.011902
-0.0033569
-0.045471
-0.036926
0.0027466
-0.007019
-0.042114
-0.031433
0.0012207
-0.022278
-0.062866
-0.046692
0
-0.0057983
-0.039673
-0.028687
-0.0018311
-0.02655
-0.065613
-0.047302
-0.0018311
-0.0036621
-0.016785
0.02594
0.077209
0.061951
0.032349
0.075073
0.15472
0.1712
0.14313
0.14435
0.15747
0.12543
0.081177
0.084534
0.092163
0.037231
-0.032654
-0.039673
-0.022888
-0.05188
-0.088501
-0.067749
-0.034485
-0.057983
-0.09491
-0.079346
-0.051575
-0.074463
-0.1001
-0.067444
-0.031738
-0.054626
-0.076904
-0.014648
0.097351
0.18646
0.3067
0.55359
0.88623
1.1612
1.2524
1.0632
0.61066
0.090942
-0.20172
-0.15869
0.0079346
0.07843
0.056763
0.044556
0.037231
-0.0015259
-0.02533
0.020142
0.065613
0.052185
0.029907
0.059204
0.084839
0.063477
0.050659
0.1004
0.13916
0.11749
0.09491
0.1355
0.17395
0.15869
0.14709
0.19257
0.22766
0.20844
0.19379
0.24384
0.289
0.28168
0.27863
0.33142
0.37262
0.36194
0.35706
0.40863
0.44434
0.42877
0.42297
0.47302
0.50171
0.4718
0.44769
0.47943
0.48553
0.42511
0.36102
0.34851
0.31769
0.23712
0.1709
0.16632
0.14709
0.081482
0.03418
0.053406
0.058899
0.022583
0.0067139
0.048218
0.064087
0.027466
0.0097656
0.054321
0.07782
0.050049
0.037537
0.083008
0.1062
0.079346
0.068665
0.10925
0.11963
0.080566
0.064087
0.11017
0.12939
0.095825
0.07843
0.11414
0.12421
0.089722
0.079651
0.12451
0.13428
0.093689
0.076599
0.1181
0.12909
0.092773
0.082397
0.12695
0.13885
0.10376
0.090027
0.12817
0.13031
0.092773
0.090332
0.14374
0.15686
0.12146
0.11444
0.16846
0.19379
0.17761
0.1828
0.23041
0.24414
0.23407
0.27039
0.34912
0.36377
0.31494
0.28839
0.3125
0.29388
0.2301
0.19379
0.20111
0.1709
0.11322
0.10193
0.14282
0.13855
0.092163
0.084229
0.12512
0.1239
0.080261
0.073242
0.11414
0.11322
0.074768
0.073853
0.12604
0.14648
0.15686
0.23834
0.38971
0.54474
0.74738
1.0638
1.3699
1.3779
1.0074
0.49225
0.10864
-0.046387
-0.0015259
0.14221
0.25177
0.23163
0.1535
0.13611
0.17914
0.17914
0.1474
0.159
0.20447
0.20142
0.1712
0.18829
0.23956
0.2356
0.20203
0.21606
0.26642
0.26581
0.23773
0.25604
0.30792
0.30609
0.2774
0.29755
0.35156
0.35645
0.33478
0.36316
0.41962
0.4245
0.40588
0.43488
0.49042
0.49164
0.4715
0.50262
0.55847
0.55664
0.52887
0.5484
0.58563
0.56366
0.51483
0.51025
0.51941
0.46295
0.38177
0.34851
0.3363
0.271
0.19287
0.17334
0.17822
0.13519
0.084229
0.093994
0.12482
0.10101
0.061035
0.076294
0.10742
0.086975
0.057678
0.08606
0.12817
0.10773
0.071106
0.091248
0.1297
0.11658
0.089417
0.11414
0.14587
0.12024
0.085144
0.10559
0.13519
0.11017
0.075073
0.099487
0.13031
0.10437
0.071106
0.09552
0.12543
0.097961
0.06073
0.082092
0.10986
0.085449
0.057373
0.085449
0.112
0.079956
0.043945
0.07019
0.097656
0.071106
0.042419
0.076294
0.11932
0.11688
0.11475
0.15625
0.18158
0.15472
0.14801
0.21759
0.27466
0.25787
0.22491
0.242
0.24811
0.19409
0.13702
0.13702
0.12634
0.063477
0.012817
0.032349
0.049744
0.012512
-0.020752
0.0042725
0.021973
-0.011292
-0.037231
-0.0054932
0.012512
-0.018921
-0.038147
0.0045776
0.037231
0.02533
0.050659
0.17212
0.30731
0.43427
0.64026
0.96466
1.2115
1.1566
0.78979
0.32135
-0.055847
-0.20599
-0.12878
0.045776
0.12177
0.069275
0.0085449
0.024719
0.038452
0.0085449
-0.0057983
0.035706
0.052795
0.020752
0.0085449
0.056152
0.07782
0.047913
0.036621
0.082703
0.10132
0.069275
0.057373
0.10376
0.12451
0.098267
0.094299
0.14618
0.16876
0.14465
0.14557
0.20355
0.2298
0.20966
0.21149
0.27008
0.29724
0.27863
0.28412
0.34027
0.35797
0.32776
0.32135
0.36713
0.37384
0.33142
0.31036
0.33081
0.30273
0.2179
0.15442
0.13824
0.085754
-0.0042725
-0.054932
-0.04364
-0.064392
-0.12268
-0.14557
-0.11444
-0.12024
-0.16693
-0.17975
-0.13947
-0.13458
-0.16785
-0.16815
-0.12604
-0.12939
-0.17059
-0.17029
-0.11871
-0.11414
-0.15564
-0.16357
-0.12451
-0.12573
-0.16449
-0.16449
-0.11963
-0.12329
-0.16876
-0.177
-0.13733
-0.13672
-0.17029
-0.16937
-0.13062
-0.13977
-0.18097
-0.17914
-0.13733
-0.14679
-0.19348
-0.19775
-0.15564
-0.15625
-0.19257
-0.19043
-0.15289
-0.15839
-0.18616
-0.16296
-0.098572
-0.089111
-0.12085
-0.11108
-0.058289
-0.03418
-0.026245
0.015869
0.064392
0.036926
-0.025635
-0.036316
-0.014038
-0.050659
-0.12299
-0.14832
-0.13611
-0.16815
-0.21973
-0.2182
-0.18158
-0.1947
-0.2356
-0.22949
-0.19562
-0.21057
-0.24231
-0.22278
-0.17914
-0.19714
-0.23804
-0.21362
-0.14404
-0.093689
-0.032959
0.10284
0.30823
0.53223
0.79041
1.0223
1.0031
0.60638
0.05249
-0.30945
-0.35889
-0.25787
-0.15259
-0.083008
-0.072327
-0.12848
-0.17609
-0.14771
-0.10162
-0.11841
-0.15533
-0.13397
-0.090332
-0.1004
-0.12604
-0.097961
-0.05249
-0.061035
-0.085144
-0.057068
-0.01709
-0.030212
-0.054321
-0.021667
0.023193
0.014343
-0.0021362
0.037231
0.087585
0.080872
0.064697
0.10498
0.15381
0.15137
0.14374
0.19104
0.24109
0.23224
0.21637
0.25879
0.30304
0.29053
0.26733
0.29297
0.31128
0.26611
0.20935
0.20142
0.18524
0.10986
0.030518
0.010681
-0.010681
-0.086975
-0.15686
-0.15656
-0.14526
-0.1825
-0.22003
-0.19867
-0.17853
-0.20752
-0.23407
-0.20325
-0.17883
-0.20569
-0.22552
-0.18829
-0.16144
-0.18921
-0.20966
-0.16632
-0.13519
-0.16296
-0.19226
-0.16724
-0.15015
-0.18158
-0.20294
-0.16418
-0.14008
-0.16907
-0.19257
-0.159
-0.14008
-0.17059
-0.19165
-0.15656
-0.14069
-0.17517
-0.19897
-0.16144
-0.14343
-0.18036
-0.20355
-0.16052
-0.12238
-0.12482
-0.12146
-0.075073
-0.056458
-0.075684
-0.057678
0.025024
0.067749
0.033264
-0.0030518
0.015564
0.013428
-0.044556
-0.093994
-0.087585
-0.1059
-0.16693
-0.20569
-0.18066
-0.1709
-0.20172
-0.21454
-0.17487
-0.16663
-0.20752
-0.22858
-0.19379
-0.18585
-0.22247
-0.23407
-0.18799
-0.16541
-0.17242
-0.12238
0.025024
0.18066
0.34363
0.60608
0.95825
1.1816
1.0703
0.6546
0.1532
-0.24445
-0.38635
-0.28229
-0.091553
-0.020752
-0.07843
-0.13306
-0.11902
-0.12054
-0.15106
-0.14709
-0.092773
-0.081177
-0.11353
-0.11505
-0.063782
-0.050964
-0.082397
-0.080261
-0.027466
-0.0097656
-0.036621
-0.031128
0.021667
0.0354
0.010986
0.018005
0.068665
0.079346
0.053101
0.063477
0.12512
0.14771
0.13519
0.15564
0.21606
0.23285
0.21545
0.23529
0.29266
0.3009
0.27039
0.2774
0.32501
0.3241
0.28229
0.26733
0.27618
0.22858
0.14252
0.098877
0.092773
0.037231
-0.046997
-0.085144
-0.079651
-0.11688
-0.17517
-0.17914
-0.13763
-0.1474
-0.19226
-0.19653
-0.16205
-0.16937
-0.19775
-0.17639
-0.1239
-0.13031
-0.17029
-0.16205
-0.11292
-0.11505
-0.15137
-0.14709
-0.10956
-0.11536
-0.14221
-0.12543
-0.083923
-0.098877
-0.13733
-0.12604
-0.085144
-0.096436
-0.13123
-0.11871
-0.079346
-0.092468
-0.13062
-0.12115
-0.087891
-0.10559
-0.1416
-0.11902
-0.066528
-0.059814
-0.074158
-0.045776
-0.0024414
-0.016174
-0.039673
0.0091553
0.084534
0.093384
0.059509
0.062561
0.085144
0.054626
0.00061035
-0.010986
-0.013123
-0.068359
-0.13458
-0.13885
-0.11871
-0.14587
-0.18433
-0.16693
-0.13092
-0.14862
-0.18066
-0.16052
-0.12634
-0.14374
-0.17426
-0.14954
-0.10803
-0.10834
-0.099182
0.0015259
0.14771
0.28046
0.46875
0.79346
1.1343
1.2671
1.0532
0.59723
0.091858
-0.24933
-0.29541
-0.12695
0.018005
0.0097656
-0.061951
-0.071716
-0.050659
-0.071716
-0.097351
-0.066223
-0.033569
-0.050964
-0.071411
-0.03479
0.0015259
-0.015564
-0.037231
0
0.0354
0.019226
0.0039673
0.042114
0.075378
0.058594
0.047607
0.094604
0.13092
0.11108
0.097656
0.14984
0.1944
0.18341
0.17548
0.22919
0.28015
0.27985
0.27832
0.32471
0.34943
0.32104
0.30334
0.34546
0.3714
0.34058
0.31158
0.32959
0.31738
0.23865
0.1593
0.13763
0.10559
0.029602
-0.032043
-0.033569
-0.048523
-0.10864
-0.14771
-0.12482
-0.11841
-0.15717
-0.18036
-0.14069
-0.11963
-0.14832
-0.16113
-0.11902
-0.099792
-0.13062
-0.14435
-0.10101
-0.085449
-0.12238
-0.13947
-0.098572
-0.081787
-0.11749
-0.13672
-0.098572
-0.08606
-0.12085
-0.1358
-0.092163
-0.073853
-0.10437
-0.11993
-0.085449
-0.080261
-0.11749
-0.13031
-0.091858
-0.087585
-0.1297
-0.14221
-0.089111
-0.058289
-0.066528
-0.054016
-0.0024414
0.0048828
-0.027466
-0.011292
0.070496
0.10345
0.069885
0.048218
0.077209
0.068665
0.011902
-0.021057
-0.0085449
-0.036926
-0.10559
-0.13641
-0.10895
-0.11719
-0.16479
-0.177
-0.13702
-0.1355
-0.17151
-0.17059
-0.12054
-0.11688
-0.15869
-0.16663
-0.12024
-0.10498
-0.11749
-0.067139
0.066528
0.19348
0.33447
0.58533
0.93384
1.1716
1.1093
0.74432
0.2475
-0.18097
-0.34088
-0.22614
-0.030212
0.02533
-0.042725
-0.08728
-0.061646
-0.059509
-0.086975
-0.080872
-0.036316
-0.036316
-0.067749
-0.057068
-0.0088501
-0.0088501
-0.039063
-0.023499
0.029907
0.031738
-0.0024414
0.0088501
0.063171
0.071716
0.048523
0.068665
0.1239
0.13214
0.11108
0.13336
0.19226
0.20386
0.19012
0.22034
0.27802
0.28198
0.26062
0.28931
0.34851
0.35309
0.32837
0.34821
0.39185
0.3772
0.3302
0.32593
0.34332
0.29999
0.21942
0.17853
0.15961
0.091858
0.0064087
-0.020447
-0.014954
-0.052185
-0.10437
-0.1001
-0.070801
-0.093079
-0.13458
-0.12115
-0.081787
-0.095825
-0.13123
-0.11597
-0.079041
-0.091858
-0.11719
-0.089722
-0.046997
-0.064392
-0.097656
-0.075073
-0.034485
-0.052795
-0.092773
-0.078125
-0.043335
-0.059814
-0.092163
-0.07019
-0.033569
-0.05188
-0.085449
-0.067444
-0.037537
-0.059814
-0.093689
-0.070496
-0.037231
-0.057373
-0.085144
-0.058289
-0.027466
-0.057983
-0.098572
-0.074463
-0.037537
-0.054932
-0.083923
-0.057373
-0.015564
-0.018616
-0.023804
0.016785
0.047302
0.021667
0.0094604
0.077209
0.14923
0.14832
0.11871
0.13367
0.14374
0.1001
0.05188
0.054016
0.046692
-0.014954
-0.071716
-0.057983
-0.041504
-0.075378
-0.10803
-0.082397
-0.061035
-0.091553
-0.1181
-0.086975
-0.064392
-0.09552
-0.12085
-0.083008
-0.051575
-0.06897
-0.064697
0.039673
0.17395
0.28809
0.45837
0.7605
1.073
1.2042
1.0294
0.61554
0.12329
-0.2179
-0.25665
-0.081177
0.057678
0.051575
-0.0033569
-0.0012207
0.0033569
-0.028992
-0.045776
-0.0012207
0.028381
0.0057983
-0.010986
0.027771
0.050354
0.028076
0.018921
0.064087
0.088501
0.067139
0.059204
0.10376
0.12634
0.10559
0.10468
0.15778
0.18036
0.15472
0.15381
0.21515
0.25299
0.23682
0.23651
0.29358
0.32684
0.31494
0.31952
0.37567
0.39978
0.37598
0.37201
0.42267
0.44098
0.40924
0.39185
0.41748
0.39673
0.31921
0.2594
0.25238
0.21271
0.12756
0.071106
0.074463
0.050354
-0.011597
-0.044556
-0.021973
-0.032043
-0.07843
-0.088196
-0.042725
-0.031433
-0.064087
-0.067444
-0.024109
-0.021667
-0.057983
-0.058899
-0.0088501
-0.0033569
-0.04364
-0.048523
0.0012207
0.012512
-0.021667
-0.031128
0.0082397
0.0085449
-0.027466
-0.029907
0.012817
0.012817
-0.026245
-0.032654
0.0085449
0.007019
-0.028687
-0.030518
0.0085449
0.00091553
-0.041199
-0.040283
0.0076294
0.0076294
-0.0354
-0.041199
-0.0015259
-0.0082397
-0.049133
-0.050354
-0.0054932
-0.0079346
-0.049133
-0.055847
-0.012817
-0.0042725
-0.012512
0.012817
0.063782
0.05188
0.021973
0.055237
0.14343
0.16754
0.13977
0.13519
0.16449
0.14099
0.08667
0.067139
0.078735
0.030823
-0.041504
-0.06134
-0.032043
-0.047607
-0.089417
-0.088196
-0.052185
-0.070496
-0.10925
-0.1004
-0.055237
-0.066528
-0.10071
-0.085754
-0.033569
-0.026855
-0.037537
0.018311
0.1413
0.2478
0.37354
0.60516
0.92255
1.1542
1.1566
0.87738
0.41199
-0.050659
-0.26001
-0.16846
0.021362
0.088806
0.049133
0.026855
0.041809
0.021973
-0.0057983
0.014648
0.052795
0.037537
0.013123
0.04303
0.091553
0.082703
0.057373
0.085144
0.12817
0.11475
0.084839
0.11017
0.15411
0.14893
0.1358
0.17395
0.22095
0.21057
0.19012
0.22827
0.27863
0.27344
0.26031
0.30487
0.35645
0.35004
0.33722
0.38574
0.43823
0.42572
0.4007
0.43457
0.47852
0.46234
0.42969
0.44434
0.45074
0.39307
0.32471
0.31067
0.29083
0.21027
0.12604
0.10803
0.10101
0.046082
-0.0015259
0.017395
0.035706
-0.005188
-0.049438
-0.026245
0.0048828
-0.014954
-0.039368
-0.0073242
0.024719
0.0064087
-0.015869
0.013733
0.03418
0.0082397
-0.0097656
0.030518
0.056763
0.02655
0.00061035
0.036011
0.058899
0.02594
-0.0054932
0.025635
0.045471
0.013733
-0.0085449
0.033569
0.06012
0.027466
-0.0057983
0.023804
0.048523
0.022888
-0.0015259
0.024109
0.033875
0.0018311
-0.013428
0.028381
0.044556
0.0048828
-0.022278
0.01709
0.038757
0.0088501
-0.011597
0.032959
0.068665
0.060425
0.064087
0.11139
0.12604
0.098267
0.10223
0.17975
0.22705
0.21027
0.19653
0.22919
0.22736
0.16785
0.11292
0.11047
0.081482
0.016174
-0.024109
0.0015259
0
-0.037231
-0.054016
-0.013428
-0.0079346
-0.044556
-0.057373
-0.0091553
0.0030518
-0.029602
-0.047302
-0.0085449
0.0064087
-0.0067139
0.02594
0.14679
0.26031
0.36682
0.5603
0.88409
1.1703
1.2405
1.0086
0.57465
0.096741
-0.18585
-0.16479
0.032043
0.1474
0.12573
0.079041
0.085449
0.075378
0.039673
0.0354
0.085449
0.094299
0.066528
0.068665
0.12115
0.13184
0.10529
0.10986
0.1651
0.17761
0.14771
0.14679
0.19531
0.20721
0.18768
0.20264
0.25909
0.26611
0.23804
0.24902
0.31006
0.32257
0.29724
0.30823
0.37231
0.39764
0.38727
0.40771
0.46814
0.47974
0.45319
0.46204
0.51056
0.51575
0.4834
0.47913
0.49835
0.45746
0.37903
0.33783
0.33264
0.27435
0.18463
0.13916
0.13916
0.092163
0.023499
0.0036621
0.032043
0.017395
-0.018921
-0.012817
0.029907
0.021362
-0.014343
-0.0039673
0.043945
0.038452
0.0073242
0.021057
0.066223
0.053406
0.013733
0.02533
0.075073
0.073547
0.040588
0.046082
0.079651
0.060425
0.024109
0.038452
0.083618
0.073853
0.036926
0.04303
0.080261
0.07019
0.042114
0.053711
0.084839
0.064087
0.033569
0.057373
0.098267
0.075684
0.03479
0.047607
0.08667
0.068054
0.030823
0.046997
0.086365
0.069275
0.03479
0.057373
0.10529
0.099182
0.074158
0.09552
0.13367
0.12482
0.11444
0.15869
0.20477
0.18494
0.16296
0.22034
0.29724
0.29785
0.26337
0.27344
0.29358
0.25452
0.19775
0.19073
0.19135
0.13489
0.07019
0.070496
0.093079
0.075073
0.050354
0.073547
0.094299
0.061951
0.026855
0.050964
0.079956
0.055847
0.027771
0.061035
0.1062
0.10712
0.12268
0.2243
0.36102
0.4892
0.68726
1.0144
1.3251
1.3968
1.134
0.67291
0.20386
-0.082397
-0.088806
0.085449
0.21362
0.19226
0.1236
0.12573
0.15076
0.13367
0.11444
0.14801
0.17242
0.1474
0.12543
0.16174
0.1886
0.16388
0.14496
0.19012
0.22369
0.20081
0.17944
0.22034
0.25757
0.24658
0.23956
0.28534
0.31433
0.28992
0.27802
0.32715
0.36469
0.35034
0.34668
0.40253
0.44037
0.42633
0.41962
0.47028
0.50323
0.48431
0.47791
0.52582
0.54871
0.513
0.47577
0.4892
0.47668
0.41046
0.35065
0.33691
0.29266
0.2063
0.14587
0.1535
0.13306
0.06012
0.0097656
0.033875
0.043945
0.010071
-0.0061035
0.037842
0.056763
0.022278
0.00091553
0.037537
0.057068
0.038147
0.033569
0.072327
0.074768
0.033264
0.017395
0.060425
0.071106
0.040283
0.031433
0.078125
0.088806
0.050964
0.033569
0.073547
0.085754
0.054016
0.036316
0.066223
0.063477
0.024414
0.015869
0.059509
0.06958
0.038147
0.026855
0.062256
0.058594
0.015869
0.0079346
0.055542
0.061646
0.020447
0.0039673
0.046692
0.066223
0.058899
0.086365
0.15228
0.15564
0.10803
0.1059
0.18311
0.23743
0.23804
0.24048
0.26184
0.23712
0.18219
0.16296
0.17761
0.13397
0.05249
0.018921
0.045471
0.032349
-0.014648
-0.028076
0.012207
0.016479
-0.010986
-0.0067139
0.027466
0.016174
-0.021973
-0.019226
0.026855
0.02594
0.00091553
0.033569
0.14496
0.25085
0.37079
0.59631
0.93567
1.243
1.3828
1.2396
0.82214
0.26764
-0.12848
-0.17975
-0.010986
0.10895
0.10864
0.079041
0.075378
0.049744
0.019531
0.033264
0.071106
0.057373
0.025024
0.050354
0.1062
0.10254
0.065918
0.079346
0.13031
0.13153
0.1001
0.10834
0.15167
0.15259
0.1413
0.17151
0.22186
0.21271
0.18494
0.21179
0.27313
0.28381
0.27039
0.29816
0.34637
0.34546
0.33173
0.36682
0.41809
0.40863
0.38177
0.40894
0.46143
0.45807
0.42816
0.43945
0.45685
0.40527
0.32532
0.28809
0.26947
0.19806
0.11078
0.080872
0.07782
0.030518
-0.028992
-0.036926
-0.024109
-0.054626
-0.090637
-0.070801
-0.03418
-0.046692
-0.074768
-0.054321
-0.022888
-0.040283
-0.063477
-0.039368
-0.011292
-0.036926
-0.064392
-0.033264
0.0015259
-0.022583
-0.055847
-0.026855
0.0097656
-0.010681
-0.044861
-0.026245
0.00091553
-0.021057
-0.04364
-0.012207
0.012207
-0.018616
-0.050049
-0.019531
0.0082397
-0.023804
-0.059509
-0.032349
-0.0064087
-0.037537
-0.072937
-0.047607
-0.017395
-0.037842
-0.062561
-0.02655
0.017395
0.021667
0.018616
0.048523
0.061035
0.042725
0.058899
0.14374
0.19409
0.15778
0.10834
0.1178
0.12054
0.065613
0.00061035
-0.0039673
-0.015869
-0.072632
-0.11536
-0.091248
-0.07019
-0.097046
-0.12482
-0.098877
-0.084229
-0.11322
-0.13336
-0.097961
-0.079956
-0.10773
-0.12299
-0.07782
-0.043335
-0.034485
0.024719
0.18951
0.38361
0.59631
0.87769
1.1871
1.272
0.96924
0.43549
-0.015259
-0.2243
-0.20844
-0.086365
0.032654
0.037842
-0.032349
-0.071411
-0.032043
-0.011902
-0.043335
-0.061646
-0.021362
-0.0057983
-0.031128
-0.035706
0.0177
0.039978
0.014954
0.0057983
0.053101
0.07019
0.046692
0.04364
0.096741
0.11627
0.095825
0.10284
0.16449
0.18341
0.15472
0.15503
0.22064
0.25543
0.2417
0.2478
0.31128
0.34058
0.32318
0.32074
0.36713
0.383
0.36469
0.37292
0.42297
0.42358
0.37354
0.34027
0.34668
0.30518
0.21698
0.15747
0.15076
0.1059
0.021667
-0.028992
-0.022278
-0.038757
-0.084534
-0.097046
-0.065002
-0.077209
-0.12421
-0.12878
-0.079041
-0.066223
-0.093079
-0.090637
-0.047913
-0.049133
-0.083923
-0.079346
-0.029907
-0.028076
-0.067749
-0.072937
-0.031128
-0.028687
-0.06134
-0.063477
-0.029907
-0.039063
-0.072632
-0.06134
-0.011597
-0.013733
-0.053711
-0.054626
-0.01709
-0.027771
-0.068665
-0.066223
-0.021667
-0.027466
-0.067139
-0.065918
-0.023804
-0.02533
-0.06012
-0.058899
-0.028687
-0.044861
-0.081482
-0.065308
-0.014648
-0.018921
-0.05249
-0.032349
0.032959
0.047302
0.016785
0.020142
0.065308
0.086975
0.098572
0.14343
0.19257
0.16846
0.11047
0.097351
0.11078
0.071716
0.0033569
-0.018921
-0.0091553
-0.041199
-0.08667
-0.079651
-0.047302
-0.068665
-0.11322
-0.10345
-0.062256
-0.068359
-0.098572
-0.08606
-0.053711
-0.072937
-0.10651
-0.079346
-0.010071
0.042419
0.112
0.26306
0.48828
0.7373
1.0013
1.1954
1.0971
0.63965
0.08667
-0.21545
-0.20203
-0.079956
0.0057983
0.049744
0.047302
-0.0091553
-0.056763
-0.035095
0.0057983
-0.007019
-0.032959
-0.0054932
0.033264
0.019226
-0.0039673
0.030823
0.074158
0.059204
0.032959
0.062866
0.10101
0.085754
0.065918
0.10864
0.16052
0.15045
0.12726
0.16205
0.20752
0.20233
0.19073
0.23376
0.27985
0.27527
0.26764
0.31708
0.36407
0.35004
0.33325
0.37689
0.42084
0.40558
0.37933
0.40619
0.42786
0.38666
0.33478
0.32959
0.31067
0.23224
0.15076
0.1297
0.1062
0.034485
-0.02655
-0.021667
-0.018311
-0.065918
-0.10742
-0.085754
-0.068359
-0.097961
-0.11536
-0.070801
-0.041199
-0.072327
-0.10254
-0.070496
-0.044556
-0.069885
-0.088806
-0.05249
-0.031128
-0.06134
-0.081482
-0.04303
-0.022888
-0.059509
-0.08667
-0.05188
-0.033875
-0.066833
-0.089111
-0.050354
-0.029907
-0.064697
-0.088196
-0.05127
-0.032349
-0.065308
-0.087585
-0.053101
-0.040894
-0.076904
-0.094299
-0.054321
-0.039673
-0.079346
-0.10193
-0.06134
-0.04425
-0.080261
