-0.97961
-1.0803
-0.93384
-1.0071
-1.0086
-1.1383
-1.0315
-0.91248
-0.93689
-0.98724
-0.85602
-0.85144
-1.0345
-1.123
-0.94147
-1.0101
-1.152
-1.1505
-0.89569
-0.97046
-1.1017
-1.0468
-0.81787
-0.92316
-1.0971
-1.1963
-0.99792
-1.0147
-1.1414
-1.059
-0.93536
-0.85449
-1.0178
-0.91248
-0.81024
-0.98877
-1.0269
-0.97961
-0.83313
-0.78278
-0.93079
-1.088
-0.91858
-0.97351
-1.1612
-1.0986
-0.87738
-0.96436
-1.1185
-1.2772
-1.1276
-1.03
-1.033
-1.1017
-1.1993
-1.0956
-1.0468
-1.2039
-1.1841
-1.2955
-1.2924
-1.0529
-0.84229
-0.53558
0.16022
0.041199
0.29755
0.23041
-0.11444
-0.5661
-0.68359
-0.88806
-0.84076
-0.9079
-0.90485
-0.97656
-1.0025
-0.88348
-0.95215
-1.091
-0.85144
-1.0178
-0.78278
-1.0941
-1.2115
-1.0803
-0.84686
-0.93689
-1.0498
-0.98267
-0.91705
-0.77667
-0.76294
-0.96588
-0.81482
-0.75073
-0.97809
-0.90332
-0.737
-0.7782
-0.75989
-0.66681
-0.59357
-0.58594
-0.65308
-0.48828
-0.17548
-0.44861
-0.72784
-0.68665
-0.50354
-0.49438
-0.54016
-0.58594
-0.57678
-0.67902
-0.67291
-0.82245
-0.78888
-0.80261
-0.9964
-1.0941
-0.95673
-0.85297
-1.1581
-1.2192
-1.1169
-1.0635
-1.1261
-1.0864
-1.0834
-1.0788
-1.062
-1.1307
-1.0666
-1.0544
-1.088
-1.1246
-1.0101
-1.0406
-1.0712
-1.088
-1.059
-1.0529
-1.1307
-1.0803
-1.0101
-1.0178
-1.1215
-1.1002
-1.0193
-1.0559
-1.0941
-1.1185
-1.0208
-1.0635
-1.0742
-1.0361
-1.0178
-1.0681
-1.0956
-1.0193
-0.9613
-1.0147
-1.0941
-1.0361
-0.97351
-1.0147
-1.0208
-0.95673
-0.97198
-0.90485
-0.96741
-0.92316
-0.82245
-0.90942
-0.97656
-0.89417
-0.89417
-0.92163
-0.99487
-0.96588
-0.97504
-1.0086
-1.0849
-1.0849
-1.0468
-1.0773
-1.1063
-1.0788
-1.0803
-1.0849
-1.1261
-1.0788
-1.0361
-1.0712
-1.1429
-1.181
-1.1993
-1.0284
-0.7782
-0.36926
0.047302
0.26398
0.40741
0.27924
-0.34027
-0.65613
-0.84229
-0.76294
-0.83008
-0.87891
-0.87891
-0.90179
-0.93842
-0.95367
-0.94299
-0.96436
-0.92926
-0.94757
-0.92316
-0.90179
-0.83618
-0.93994
-0.92926
-0.85144
-0.85449
-0.89111
-0.88043
-0.83466
-0.79956
-0.82245
-0.78583
-0.74615
-0.70801
-0.7431
-0.70343
-0.6546
-0.57373
-0.63019
-0.59509
-0.54779
-0.46539
-0.5127
-0.45166
-0.43335
-0.39063
-0.45929
-0.43182
-0.41962
-0.41046
-0.53711
-0.57526
-0.59814
-0.61646
-0.75378
-0.8194
-0.86975
-0.84686
-0.93689
-0.96741
-0.95825
-0.9552
-1.0895
-1.0315
-0.98877
-0.97961
-1.0376
-1.0345
-1.0056
-0.96741
-1.0498
-1.0269
-0.9964
-0.9491
-1.0162
-1.0025
-0.96893
-0.95825
-1.0437
-1.004
-0.95367
-0.9079
-1.0239
-1.0101
-0.98267
-0.9552
-1.0223
-0.98877
-0.96741
-0.94757
-1.0376
-1.0208
-0.98419
-0.95673
-1.0269
-1.0178
-1.0178
-0.95367
-1.0162
-0.99487
-0.93079
-0.88654
-0.97809
-0.95978
-0.88806
-0.84076
-0.91705
-0.8606
-0.85907
-0.8606
-0.93079
-0.92468
-0.91095
-0.92468
-1.0223
-1.0208
-0.99792
-0.98419
-1.0437
-1.0437
-0.99335
-0.96283
-1.0529
-1.0178
-0.96893
-0.97961
-1.0483
-1.1597
-1.0849
-0.89874
-0.6546
-0.31891
0.18158
0.41351
0.53864
0.31586
-0.1709
-0.49744
-0.78278
-0.79041
-0.71869
-0.73395
-0.83008
-0.85144
-0.80872
-0.78888
-0.84991
-0.87585
-0.8194
-0.76904
-0.81635
-0.84076
-0.77362
-0.72784
-0.77972
-0.80566
-0.70801
-0.70953
-0.75531
-0.74921
-0.63171
-0.59967
-0.65613
-0.67749
-0.57068
-0.5249
-0.57983
-0.56152
-0.4425
-0.37689
-0.4303
-0.43488
-0.32043
-0.24261
-0.29907
-0.31128
-0.24414
-0.21362
-0.28687
-0.35095
-0.27313
-0.29144
-0.39063
-0.48065
-0.44098
-0.52338
-0.63171
-0.72479
-0.66833
-0.68512
-0.81635
-0.8728
-0.7843
-0.79346
-0.83923
-0.87433
-0.79346
-0.79803
-0.86212
-0.90637
-0.79193
-0.78735
-0.85297
-0.88654
-0.77209
-0.76294
-0.83313
-0.93079
-0.78278
-0.77515
-0.84839
-0.94452
-0.78278
-0.76752
-0.83466
-0.92926
-0.80719
-0.81329
-0.8606
-0.9491
-0.83313
-0.81482
-0.88501
-0.96283
-0.84991
-0.83618
-0.8728
-1.001
-0.88501
-0.83313
-0.86823
-0.97351
-0.87128
-0.88806
-0.92621
-0.95673
-0.81177
-0.75684
-0.88043
-0.96741
-0.79956
-0.74768
-0.87585
-0.89722
-0.78735
-0.81482
-0.94604
-0.96741
-0.90179
-0.91248
-1.0635
-1.1047
-0.99182
-0.97351
-1.0696
-1.1139
-1.0132
-0.93994
-1.0834
-1.1246
-1.0056
-0.9613
-1.1414
-1.2878
-1.1093
-0.84839
-0.64697
-0.3479
0.19836
0.49896
0.54626
0.26245
-0.16479
-0.45166
-0.78125
-0.82855
-0.70343
-0.75378
-0.86823
-0.95215
-0.8728
-0.82092
-0.93231
-0.9552
-0.83771
-0.80109
-0.92621
-0.9552
-0.81024
-0.76904
-0.87891
-0.88348
-0.73853
-0.72327
-0.81329
-0.84991
-0.67596
-0.6485
-0.72937
-0.75073
-0.60577
-0.56305
-0.64087
-0.64545
-0.48981
-0.4303
-0.51117
-0.5188
-0.36316
-0.32654
-0.38452
-0.41046
-0.26703
-0.26703
-0.37689
-0.41962
-0.32959
-0.32501
-0.46692
-0.58899
-0.51727
-0.55847
-0.70038
-0.80872
-0.7431
-0.75836
-0.88043
-0.92468
-0.8667
-0.8667
-0.94299
-0.9613
-0.85602
-0.84839
-0.9491
-0.95215
-0.83466
-0.82397
-0.90942
-0.97351
-0.81329
-0.80719
-0.90637
-0.96893
-0.83008
-0.79803
-0.89264
-0.9491
-0.81329
-0.79041
-0.93842
-0.95978
-0.80719
-0.79193
-0.9079
-0.97198
-0.85297
-0.82245
-0.91705
-0.92773
-0.83466
-0.83771
-0.93079
-0.92621
-0.86365
-0.84381
-0.93842
-0.93231
-0.84991
-0.84686
-0.93231
-0.92163
-0.86975
-0.82855
-0.95825
-0.92926
-0.84839
-0.83313
-0.91705
-0.92316
-0.81329
-0.80261
-0.87891
-0.85144
-0.74921
-0.75836
-0.82855
-0.84229
-0.7782
-0.68512
-0.82397
-0.84991
-0.76141
-0.76904
-0.92163
-0.94147
-0.8667
-0.90027
-0.98267
-0.9552
-0.90027
-0.92926
-1.0223
-1.0056
-0.92163
-0.92926
-0.98724
-0.99182
-0.98419
-1.0895
-1.0742
-0.85449
-0.51575
-0.14343
0.17242
0.50049
0.66071
0.42114
-0.20752
-0.41046
-0.6073
-0.65155
-0.75073
-0.7782
-0.74768
-0.78583
-0.84534
-0.84839
-0.79956
-0.80566
-0.84381
-0.84076
-0.78735
-0.77362
-0.79498
-0.80719
-0.72632
-0.74158
-0.76447
-0.76904
-0.69122
-0.6897
-0.70953
-0.70343
-0.60883
-0.59052
-0.62866
-0.6073
-0.50201
-0.51117
-0.50964
-0.50354
-0.39673
-0.36469
-0.38147
-0.37231
-0.27313
-0.27771
-0.32806
-0.32806
-0.25635
-0.28229
-0.31586
-0.37384
-0.35248
-0.43335
-0.55542
-0.62256
-0.6012
-0.68054
-0.77057
-0.81482
-0.76752
-0.83008
-0.89722
-0.93842
-0.84686
-0.8728
-0.90485
-0.95215
-0.88348
-0.88806
-0.91095
-0.91553
-0.8667
-0.89874
-0.90637
-0.91095
-0.83923
-0.88654
-0.89111
-0.91858
-0.86212
-0.86212
-0.87738
-0.90485
-0.86212
-0.90027
-0.89722
-0.91858
-0.86365
-0.89111
-0.9079
-0.94604
-0.8728
-0.92468
-0.92773
-0.94147
-0.88348
-0.9552
-0.93536
-0.97046
-0.90179
-0.94299
-0.9491
-0.94452
-0.86823
-0.97351
-0.95367
-0.94604
-0.87128
-0.93536
-0.92316
-0.90485
-0.8316
-0.87128
-0.89722
-0.85449
-0.79498
-0.83771
-0.87585
-0.78735
-0.77515
-0.8728
-0.88501
-0.87738
-0.86975
-0.95367
-0.97809
-0.94299
-0.91858
-0.98267
-0.97961
-0.96436
-0.93842
-0.96436
-0.99335
-0.9552
-0.92468
-0.97351
-1.033
-1.1154
-0.97504
-0.76752
-0.46539
-0.038147
0.28687
0.53864
0.54626
0.29144
-0.32349
-0.6012
-0.78583
-0.66986
-0.67902
-0.75378
-0.80261
-0.77972
-0.7843
-0.80261
-0.8255
-0.79346
-0.75531
-0.81177
-0.79041
-0.737
-0.71869
-0.7431
-0.77057
-0.68359
-0.66223
-0.70953
-0.72479
-0.60272
-0.59967
-0.63171
-0.63171
-0.55847
-0.52795
-0.53101
-0.53101
-0.44556
-0.43793
-0.42572
-0.40283
-0.28992
-0.27924
-0.29755
-0.28381
-0.20294
-0.2121
-0.25177
-0.27466
-0.22125
-0.25024
-0.31281
-0.38452
-0.383
-0.46387
-0.56915
-0.61951
-0.61188
-0.66833
-0.74158
-0.75378
-0.65918
-0.79193
-0.84381
-0.82245
-0.77972
-0.81329
-0.85602
-0.8194
-0.77362
-0.80261
-0.79498
-0.7843
-0.73853
-0.77362
-0.79956
-0.80872
-0.75073
-0.7782
-0.79803
-0.80261
-0.74768
-0.79803
-0.78278
-0.7782
-0.75989
-0.79346
-0.80414
-0.78888
-0.74463
-0.77362
-0.80566
-0.81482
-0.76447
-0.81177
-0.83313
-0.84381
-0.7843
-0.80261
-0.80872
-0.83923
-0.75531
-0.80414
-0.79956
-0.7843
-0.71411
-0.7019
-0.75378
-0.74005
-0.66071
-0.66376
-0.74768
-0.72174
-0.72327
-0.73242
-0.72174
-0.72632
-0.75989
-0.79956
-0.86365
-0.86212
-0.84686
-0.83923
-0.87128
-0.86975
-0.84534
-0.86212
-0.90332
-0.89722
-0.86365
-0.84381
-0.93231
-1.004
-0.93079
-0.77209
-0.49896
-0.12665
0.35706
0.62256
0.65155
0.40436
-0.11597
-0.40436
-0.6485
-0.64545
-0.61798
-0.61646
-0.76141
-0.81329
-0.72174
-0.67749
-0.75226
-0.80566
-0.74615
-0.69733
-0.75226
-0.76752
-0.69122
-0.67596
-0.737
-0.74615
-0.66223
-0.63477
-0.68359
-0.66223
-0.6012
-0.59052
-0.63629
-0.61188
-0.55084
-0.48828
-0.50812
-0.49438
-0.4303
-0.37537
-0.3891
-0.38605
-0.32043
-0.2594
-0.29755
-0.29755
-0.22888
-0.19226
-0.27161
-0.31433
-0.27008
-0.26855
-0.39063
-0.46539
-0.48065
-0.51575
-0.62256
-0.72021
-0.72021
-0.74463
-0.80566
-0.83466
-0.8255
-0.8194
-0.86212
-0.90179
-0.87891
-0.85449
-0.88501
-0.87738
-0.84076
-0.77515
-0.88501
-0.97961
-0.80719
-0.74158
-0.83618
-0.92621
-0.81024
-0.78278
-0.88348
-0.93231
-0.79193
-0.77209
-0.88348
-0.95215
-0.79041
-0.76141
-0.87128
-0.9552
-0.80109
-0.76752
-0.90485
-0.99945
-0.8194
-0.79193
-0.88654
-1.0025
-0.81329
-0.81482
-0.9079
-0.99792
-0.82397
-0.83313
-0.92316
-0.99182
-0.81177
-0.77667
-0.84076
-0.92163
-0.737
-0.74615
-0.84381
-0.87585
-0.71411
-0.73853
-0.79956
-0.86365
-0.72174
-0.74615
-0.8728
-0.9491
-0.8194
-0.81177
-0.94604
-0.99487
-0.86517
-0.82855
-0.95825
-0.99335
-0.87128
-0.84686
-0.93231
-0.96893
-0.87891
-0.94604
-1.1307
-0.97961
-0.64697
-0.32959
0.0030518
0.26703
0.68512
0.68054
0.27161
-0.29602
-0.39215
-0.52338
-0.62866
-0.75531
-0.68207
-0.67902
-0.7782
-0.82092
-0.73395
-0.72632
-0.79193
-0.80719
-0.7019
-0.69885
-0.78735
-0.78583
-0.66223
-0.6424
-0.72174
-0.71564
-0.63934
-0.61188
-0.66986
-0.67596
-0.55695
-0.51575
-0.6073
-0.61188
-0.47607
-0.39215
-0.48065
-0.48981
-0.33264
-0.25482
-0.37689
-0.39215
-0.22583
-0.18005
-0.28076
-0.33264
-0.21667
-0.1709
-0.31433
-0.354
-0.28076
-0.35095
-0.50812
-0.54779
-0.54169
-0.58746
-0.72479
-0.75073
-0.71564
-0.75073
-0.8728
-0.87128
-0.81024
-0.80566
-0.89874
-0.90332
-0.83008
-0.83313
-0.9079
-0.90179
-0.80109
-0.79193
-0.88501
-0.87128
-0.80719
-0.81482
-0.87585
-0.88654
-0.81024
-0.81177
-0.89417
-0.87128
-0.80109
-0.80719
-0.90942
-0.91858
-0.81177
-0.81177
-0.88806
-0.93689
-0.83313
-0.8667
-0.92316
-0.93384
-0.86212
-0.86517
-0.914
-0.93994
-0.86975
-0.89569
-0.95978
-0.94757
-0.83313
-0.86365
-0.92773
-0.9552
-0.89417
-0.86212
-0.88806
-0.89874
-0.81482
-0.81787
-0.84381
-0.85602
-0.7782
-0.81177
-0.78735
-0.85907
-0.7782
-0.83618
-0.8606
-0.91858
-0.88043
-0.95367
-0.97351
-1.0147
-0.92926
-0.96588
-0.96893
-1.0239
-0.91553
-0.97046
-0.98572
-1.0086
-0.92316
-1.0284
-1.1322
-1.0712
-0.75531
-0.49591
-0.18158
0.177
0.54474
0.5722
0.28992
-0.41351
-0.52795
-0.73242
-0.71716
-0.79803
-0.76294
-0.79803
-0.83618
-0.8606
-0.75836
-0.81787
-0.83771
-0.87433
-0.75073
-0.77515
-0.78583
-0.80109
-0.72937
-0.76447
-0.76141
-0.77667
-0.67749
-0.70648
-0.70343
-0.74005
-0.63324
-0.63324
-0.62103
-0.61493
-0.51422
-0.55847
-0.52338
-0.4837
-0.36926
-0.37689
-0.39063
-0.38757
-0.26093
-0.27924
-0.28534
-0.2655
-0.2121
-0.26245
-0.31586
-0.32043
-0.25482
-0.33875
-0.44708
-0.50659
-0.50507
-0.59052
-0.67749
-0.7019
-0.68054
-0.74158
-0.79498
-0.78278
-0.75378
-0.81329
-0.85144
-0.81635
-0.77209
-0.81787
-0.83771
-0.80414
-0.74158
-0.78583
-0.81329
-0.77362
-0.76904
-0.78888
-0.82855
-0.76752
-0.73395
-0.76294
-0.80414
-0.74005
-0.72479
-0.78735
-0.85907
-0.77362
-0.74768
-0.80261
-0.84686
-0.75836
-0.7782
-0.80109
-0.81787
-0.77209
-0.7843
-0.78278
-0.80261
-0.73853
-0.68359
-0.70038
-0.76752
-0.68359
-0.71106
-0.65765
-0.68817
-0.66071
-0.68512
-0.71716
-0.79498
-0.72632
-0.78583
-0.83313
-0.87891
-0.79041
-0.80261
-0.85144
-0.87128
-0.80261
-0.81329
-0.83771
-0.87433
-0.79346
-0.80566
-0.88196
-1.0284
-0.91248
-0.71259
-0.41199
-0.07019
0.38605
0.62561
0.70496
0.39368
-0.20905
-0.46539
-0.6546
-0.63934
-0.56763
-0.61798
-0.67139
-0.69885
-0.65002
-0.65155
-0.70038
-0.71716
-0.66071
-0.66223
-0.67291
-0.69122
-0.61951
-0.62408
-0.6546
-0.6424
-0.58899
-0.57526
-0.62866
-0.59662
-0.53406
-0.49438
-0.52948
-0.56763
-0.48218
-0.47302
-0.48523
-0.42114
-0.31281
-0.30823
-0.34485
-0.33417
-0.22736
-0.16479
-0.22888
-0.21667
-0.16174
-0.16327
-0.21667
-0.21667
-0.19836
-0.2533
-0.36926
-0.41351
-0.42419
-0.49591
-0.60883
-0.65002
-0.65155
-0.69122
-0.78888
-0.78735
-0.74921
-0.74615
-0.80566
-0.79803
-0.74463
-0.78125
-0.84991
-0.81024
-0.75989
-0.76141
-0.84229
-0.82397
-0.75989
-0.75073
-0.80719
-0.81482
-0.75989
-0.71869
-0.82092
-0.81482
-0.77667
-0.7309
-0.84381
-0.7843
-0.77515
-0.75073
-0.87738
-0.84991
-0.79803
-0.73853
-0.84839
-0.80719
-0.7843
-0.68359
-0.75684
-0.77209
-0.74921
-0.66528
-0.78735
-0.75531
-0.69427
-0.65002
-0.77057
-0.78583
-0.75073
-0.75378
-0.89417
-0.90637
-0.8667
-0.81787
-0.95367
-0.92773
-0.88043
-0.82397
-0.94604
-0.9613
-0.91095
-0.8667
-0.92773
-0.97046
-1.0498
-0.93536
-0.8194
-0.46692
-0.076294
0.37994
0.56152
0.62561
0.35248
-0.23041
-0.53864
-0.66223
-0.61035
-0.65155
-0.79346
-0.75989
-0.72632
-0.71716
-0.8255
-0.80566
-0.75378
-0.71411
-0.80414
-0.77057
-0.75073
-0.70801
-0.75378
-0.77209
-0.6897
-0.63171
-0.70648
-0.76447
-0.66833
-0.58594
-0.63171
-0.67902
-0.55389
-0.50507
-0.52643
-0.57983
-0.4425
-0.37079
-0.41351
-0.4364
-0.30518
-0.26398
-0.32959
-0.37231
-0.2243
-0.19531
-0.26855
-0.38452
-0.26703
-0.25787
-0.36926
-0.5127
-0.44098
-0.48676
-0.60577
-0.75531
-0.65002
-0.66986
-0.78735
-0.90485
-0.75226
-0.78735
-0.8606
-0.93842
-0.77362
-0.78125
-0.85449
-0.95367
-0.77057
-0.75531
-0.87128
-0.96283
-0.76752
-0.76447
-0.83923
-0.92773
-0.75684
-0.77362
-0.83771
-0.90179
-0.75531
-0.79346
-0.86212
-0.89417
-0.77667
-0.79193
-0.85602
-0.94299
-0.80414
-0.81177
-0.89569
-0.93079
-0.79956
-0.81329
-0.89569
-0.93231
-0.75073
-0.74921
-0.81482
-0.83771
-0.71869
-0.68054
-0.80719
-0.87738
-0.71411
-0.68359
-0.7843
-0.83923
-0.74158
-0.77972
-0.90332
-0.94147
-0.914
-0.89111
-1.0025
-0.97504
-0.86365
-0.88654
-0.97809
-1.0025
-0.90179
-0.88348
-1.0025
-1.0086
-1.001
-1.0605
-0.97961
-0.76294
-0.3891
0.071716
0.29144
0.57983
0.65155
0.32043
-0.34637
-0.61035
-0.63019
-0.62408
-0.78735
-0.83771
-0.76904
-0.7843
-0.89417
-0.89417
-0.82397
-0.80719
-0.88196
-0.85144
-0.78735
-0.77362
-0.86212
-0.85144
-0.74158
-0.70953
-0.79193
-0.82397
-0.7019
-0.63934
-0.74005
-0.75989
-0.62256
-0.5722
-0.66376
-0.67139
-0.53558
-0.46844
-0.54169
-0.54474
-0.3952
-0.35095
-0.40588
-0.43945
-0.30518
-0.29602
-0.38757
-0.41656
-0.31433
-0.33569
-0.44861
-0.49896
-0.46234
-0.53864
-0.65918
-0.7309
-0.71259
-0.76904
-0.87585
-0.92926
-0.86823
-0.88196
-0.95215
-0.97198
-0.90637
-0.914
-0.96741
-0.98419
-0.92926
-0.89874
-0.95367
-0.99182
-0.89874
-0.90637
-0.93689
-0.96893
-0.88501
-0.88654
-0.95825
-0.9964
-0.92163
-0.95673
-0.96283
-0.98572
-0.90637
-0.9613
-0.96283
-1.0071
-0.92163
-0.96893
-0.99792
-1.0193
-0.94757
-0.9613
-0.99792
-1.0452
-0.97504
-1.0132
-1.0147
-1.0635
-0.97046
-1.0132
-1.0208
-0.97809
-0.90637
-0.93994
-0.91553
-0.96283
-0.8667
-0.89264
-0.91705
-0.94757
-0.85907
-0.90942
-0.94757
-0.94757
-0.92468
-1.0254
-1.0437
-1.0849
-0.99792
-1.0635
-1.062
-1.0834
-1.0056
-1.0559
-1.0757
-1.1139
-1.0147
-1.0544
-1.091
-1.1551
-1.1398
-1.0605
-0.87738
-0.58136
-0.086975
0.18616
0.48828
0.48065
0.27313
-0.3479
-0.59662
-0.72937
-0.66071
-0.77057
-0.86823
-0.88501
-0.83008
-0.83923
-0.87585
-0.88501
-0.83466
-0.84381
-0.88196
-0.85297
-0.79498
-0.81635
-0.87891
-0.8255
-0.75989
-0.75073
-0.80261
-0.79346
-0.70801
-0.69122
-0.71716
-0.66223
-0.60577
-0.6546
-0.65002
-0.53406
-0.48828
-0.48065
-0.50507
-0.4364
-0.37079
-0.383
-0.41046
-0.35858
-0.32959
-0.32043
-0.35095
-0.34485
-0.35248
-0.35553
-0.44556
-0.47455
-0.48218
-0.5661
-0.6897
-0.68817
-0.72784
-0.77972
-0.86212
-0.8194
-0.84229
-0.86823
-0.93536
-0.87891
-0.8606
-0.88654
-0.9491
-0.87585
-0.88196
-0.87128
-0.93689
-0.84076
-0.81635
-0.87738
-0.92468
-0.83923
-0.85297
-0.89874
-0.91553
-0.85907
-0.85144
-0.89569
-0.93536
-0.87585
-0.85297
-0.91553
-0.93842
-0.88654
-0.87738
-0.89569
-0.93231
-0.90485
-0.87433
-0.92773
-0.94604
-0.88196
-0.87891
-0.93536
-0.97351
-0.90637
-0.88501
-0.94452
-0.96436
-0.92926
-0.914
-0.93994
-0.96893
-0.8606
-0.83313
-0.8667
-0.89111
-0.8316
-0.80109
-0.84991
-0.85449
-0.79956
-0.78735
-0.85449
-0.87738
-0.85297
-0.91705
-0.9552
-0.97809
-0.94147
-0.96283
-1.0193
-1.0284
-0.97351
-0.96741
-1.0178
-1.0056
-0.94757
-0.96283
-1.0284
-1.0254
-1.0635
-1.1063
-0.99182
-0.70801
-0.36011
0.11902
0.28534
0.55389
0.48065
-0.053406
-0.54016
-0.72937
-0.75684
-0.72479
-0.82092
-0.84381
-0.81482
-0.83923
-0.914
-0.89264
-0.84991
-0.82397
-0.89264
-0.87585
-0.84076
-0.81787
-0.84991
-0.80109
-0.77209
-0.77057
-0.83618
-0.80261
-0.71564
-0.70038
-0.72937
-0.6897
-0.66376
-0.61951
-0.67749
-0.63324
-0.54626
-0.50659
-0.55847
-0.50507
-0.4425
-0.37231
-0.42267
-0.36926
-0.34485
-0.30365
-0.37537
-0.36163
-0.32196
-0.33112
-0.43182
-0.44556
-0.47302
-0.52795
-0.64697
-0.66071
-0.69122
-0.68359
-0.8255
-0.84686
-0.82855
-0.80109
-0.90179
-0.91858
-0.89722
-0.84686
-0.92163
-0.90637
-0.88043
-0.80566
-0.88196
-0.86975
-0.86975
-0.81482
-0.92773
-0.89111
-0.81635
-0.77667
-0.87128
-0.89569
-0.86212
-0.77209
-0.89874
-0.90027
-0.84381
-0.78583
-0.89264
-0.88654
-0.84686
-0.80261
-0.90179
-0.89569
-0.83923
-0.81177
-0.89569
-0.88654
-0.83771
-0.77515
-0.83923
-0.81787
-0.75989
-0.737
-0.81787
-0.80719
-0.74158
-0.68207
-0.75989
-0.78888
-0.74615
-0.70648
-0.8728
-0.88196
-0.85144
-0.82855
-0.88501
-0.89874
-0.8728
-0.84229
-0.91705
-0.93842
-0.85297
-0.84076
-0.9079
-0.97046
-0.86975
-0.91553
-1.0544
-1.0147
-0.67902
-0.3418
0.024414
0.28229
0.65918
0.65002
0.24567
-0.42725
-0.55542
-0.6485
-0.65765
-0.7782
-0.66833
-0.65765
-0.72937
-0.80566
-0.71259
-0.68665
-0.75684
-0.83313
-0.6897
-0.67596
-0.70648
-0.76904
-0.62256
-0.61951
-0.68207
-0.73853
-0.57831
-0.6012
-0.63019
-0.71106
-0.49896
-0.50049
-0.54169
-0.59052
-0.40588
-0.41504
-0.45624
-0.48523
-0.33264
-0.29907
-0.354
-0.36163
-0.19684
-0.18158
-0.24414
-0.32959
-0.18768
-0.19379
-0.29144
-0.37537
-0.29907
-0.35553
-0.4837
-0.58899
-0.51422
-0.57373
-0.70801
-0.7843
-0.6958
-0.72632
-0.80719
-0.86365
-0.737
-0.72021
-0.85449
-0.89111
-0.77667
-0.72937
-0.85449
-0.84991
-0.74158
-0.72784
-0.83923
-0.84686
-0.74463
-0.71564
-0.81482
-0.86212
-0.73395
-0.71869
-0.82092
-0.84229
-0.76141
-0.73853
-0.84076
-0.87891
-0.7843
-0.76141
-0.85907
-0.89264
-0.79498
-0.74921
-0.83008
-0.914
-0.81482
-0.80109
-0.86365
-0.91095
-0.80566
-0.78583
-0.8606
-0.84534
-0.73853
-0.72784
-0.79956
-0.83771
-0.70038
-0.70343
-0.77667
-0.77667
-0.71564
-0.73853
-0.81635
-0.85144
-0.8316
-0.82855
-0.92773
-0.98572
-0.90332
-0.86365
-0.96741
-0.99945
-0.89569
-0.85297
-0.96588
-1.0178
-0.88196
-0.8728
-1.0162
-1.152
-0.97504
-0.75989
-0.57373
-0.22583
0.27313
0.58594
0.65613
0.37994
-0.091553
-0.36621
-0.61798
-0.6897
-0.6485
-0.71259
-0.77515
-0.82092
-0.71869
-0.77362
-0.8606
-0.86365
-0.75836
-0.74615
-0.78888
-0.80566
-0.72632
-0.70343
-0.75684
-0.75989
-0.66223
-0.7019
-0.70953
-0.71564
-0.59662
-0.6012
-0.63782
-0.62714
-0.52795
-0.5249
-0.54321
-0.53253
-0.41656
-0.41962
-0.39215
-0.38757
-0.28534
-0.31281
-0.30823
-0.32196
-0.23041
-0.24414
-0.2594
-0.30823
-0.29449
-0.36163
-0.41046
-0.46844
-0.45929
-0.56305
-0.65613
-0.72327
-0.6897
-0.76447
-0.79193
-0.82397
-0.76447
-0.83313
-0.84839
-0.89722
-0.81635
-0.81024
-0.83923
-0.84839
-0.77209
-0.81024
-0.83771
-0.84076
-0.78583
-0.81329
-0.83008
-0.82245
-0.737
-0.78278
-0.84839
-0.83771
-0.78583
-0.80872
-0.84076
-0.83923
-0.77057
-0.81024
-0.85449
-0.86365
-0.7843
-0.79956
-0.84686
-0.85297
-0.7843
-0.80109
-0.85907
-0.84686
-0.81635
-0.81482
-0.85602
-0.86212
-0.82855
-0.82245
-0.87738
-0.85449
-0.77515
-0.75989
-0.8255
-0.79041
-0.72021
-0.7309
-0.78278
-0.79041
-0.74158
-0.69122
-0.77972
-0.76752
-0.7431
-0.78125
-0.88043
-0.87433
-0.85144
-0.88348
-0.94757
-0.89722
-0.89417
-0.92621
-0.97809
-0.92468
-0.89874
-0.9079
-0.97656
-0.95215
-0.97504
-1.0651
-1.0025
-0.77057
-0.4715
-0.07782
0.2182
0.57373
0.65918
0.36774
-0.25482
-0.4364
-0.58899
-0.64545
-0.74615
-0.75073
-0.75989
-0.81024
-0.85907
-0.79956
-0.79041
-0.81482
-0.84839
-0.7843
-0.77362
-0.79041
-0.83008
-0.75226
-0.76141
-0.75684
-0.78583
-0.69275
-0.6897
-0.7309
-0.71564
-0.64545
-0.63171
-0.66223
-0.63477
-0.57831
-0.56305
-0.52948
-0.5188
-0.46387
-0.42267
-0.42267
-0.40131
-0.36163
-0.32501
-0.36926
-0.36163
-0.33417
-0.30518
-0.37842
-0.41046
-0.41656
-0.46997
-0.59052
-0.64087
-0.6485
-0.69427
-0.80566
-0.86517
-0.84686
-0.86212
-0.93384
-0.9491
-0.95367
-0.92621
-0.96436
-0.96588
-0.95215
-0.91095
-0.99792
-0.98572
-0.94147
-0.914
-0.99182
-0.95825
-0.92773
-0.92926
-1.0025
-0.95825
-0.91248
-0.91858
-0.97351
-0.98877
-0.95367
-0.9552
-1.0025
-0.99945
-0.95825
-0.95215
-0.99182
-1.0178
-0.96741
-0.96283
-1.0178
-1.004
-0.97046
-0.96741
-1.03
-1.0483
-0.97961
-1.001
-1.0178
-1.0025
-0.94452
-0.93079
-1.0178
-0.95215
-0.91248
-0.86517
-0.97504
-0.95825
-0.85144
-0.87128
-0.96893
-0.96283
-0.9491
-0.98419
-1.0834
-1.0864
-1.0574
-1.0544
-1.1429
-1.12
-1.0742
-1.059
-1.1383
-1.12
-1.0956
-1.0803
-1.1536
-1.1566
-1.2238
-1.181
-1.062
-0.75378
-0.3418
0.085449
0.27313
0.44403
0.23956
-0.39673
-0.73853
-0.93536
-0.87891
-0.81787
-0.95825
-0.97809
-0.94757
-0.91705
-1.0178
-1.004
-0.96741
-0.93079
-0.9903
-0.99182
-0.95367
-0.89264
-0.96436
-0.94147
-0.88348
-0.85449
-0.914
-0.9079
-0.86212
-0.80261
-0.87738
-0.84991
-0.7431
-0.69733
-0.78125
-0.76752
-0.66528
-0.59052
-0.65308
-0.61493
-0.53864
-0.47302
-0.53864
-0.51117
-0.45929
-0.40131
-0.50659
-0.52338
-0.45624
-0.43793
-0.5661
-0.62866
-0.62866
-0.62714
-0.79956
-0.86212
-0.83466
-0.86975
-0.98572
-1.0132
-0.97961
-0.9903
-1.0834
-1.0834
-1.0193
-0.97656
-1.0635
-1.0757
-1.0162
-0.98877
-1.0529
-1.03
-0.97351
-0.96893
-1.033
-1.0971
-0.99945
-0.96741
-1.0269
-1.1276
-1.0284
-0.97351
-1.0391
-1.1063
-0.98267
-0.96436
-1.0498
-1.1475
-1.0086
-0.99792
-1.0712
-1.1749
-1.0071
-1.0086
-1.0406
-1.0971
-0.9552
-0.9552
-0.98572
-1.0742
-0.95978
-0.91095
-0.97961
-1.0818
-0.90179
-0.90637
-1.001
-1.1017
-0.93536
-0.98877
-1.1185
-1.2024
-1.0605
-1.0849
-1.1597
-1.2512
-1.0849
-1.091
-1.1902
-1.239
-1.0818
-1.0895
-1.1856
-1.2985
-1.268
-1.265
-1.1383
-0.8606
-0.44098
0.047302
0.20905
0.35248
0.25635
-0.25787
-0.67291
-0.93842
-0.86212
-0.88196
-1.0391
-1.0757
-0.97198
-0.99335
-1.088
-1.1368
-0.9964
-0.96741
-1.059
-1.1124
-0.97656
-0.9552
-1.0498
-1.062
-0.93231
-0.89569
-1.0025
-1.0345
-0.89722
-0.84686
-0.95673
-0.95978
-0.82092
-0.79041
-0.84686
-0.86365
-0.72174
-0.68665
-0.72784
-0.75226
-0.60577
-0.56
-0.6485
-0.64545
-0.5249
-0.53864
-0.61646
-0.66071
-0.56152
-0.54932
-0.6897
-0.78888
-0.74921
-0.80566
-0.94757
-1.0483
-0.99792
-1.033
-1.1261
-1.1871
-1.1261
-1.1276
-1.1993
-1.239
-1.1505
-1.1612
-1.2115
-1.2497
-1.1536
-1.1459
-1.207
-1.2329
-1.1292
-1.1414
-1.2054
-1.2207
-1.1154
-1.0986
-1.2161
-1.2512
-1.1093
-1.1139
-1.2207
-1.2802
-1.149
-1.1093
-1.21
-1.2573
-1.1551
-1.1551
-1.2299
-1.2741
-1.1673
-1.1795
-1.2589
-1.2695
-1.1673
-1.2085
-1.239
-1.268
-1.1703
-1.1795
-1.1917
-1.2146
-1.0818
-1.0849
-1.1581
-1.181
-1.088
-1.0696
-1.0971
-1.1292
-1.0666
-1.1124
-1.1581
-1.2436
-1.1826
-1.178
-1.2955
-1.3336
-1.236
-1.2421
-1.3
-1.3321
-1.2329
-1.2726
-1.3275
-1.3535
-1.2451
-1.3016
-1.4008
-1.4877
-1.2192
-0.97656
-0.71869
-0.2655
0.090027
0.33112
0.19073
-0.29144
-0.65308
-0.89417
-0.99182
-1.0452
-1.0239
-1.1215
-1.1612
-1.181
-1.0712
-1.1566
-1.1871
-1.1597
-1.0925
-1.1063
-1.1246
-1.1368
-1.0666
-1.0696
-1.0437
-1.0529
-1.0086
-1.033
-1.0086
-0.98267
-0.91858
-0.95825
-0.93689
-0.9079
-0.80566
-0.82245
-0.83923
-0.82397
-0.71716
-0.68817
-0.72479
-0.65765
-0.58594
-0.58746
-0.63019
-0.60272
-0.54169
-0.57068
-0.66223
-0.62714
-0.59357
-0.65308
-0.75836
-0.80566
-0.84381
-0.90179
-0.9964
-1.0071
-0.9903
-1.0391
-1.1566
-1.1139
-1.0925
-1.0666
-1.1765
-1.1078
-1.0788
-1.0895
-1.1765
-1.1169
-1.0956
-1.0452
-1.1414
-1.1154
-1.0849
-1.0712
-1.1398
-1.0834
-1.0605
-1.0666
-1.1444
-1.062
-1.0574
-1.0635
-1.1322
-1.0635
-1.0788
-1.0788
-1.1505
-1.1017
-1.1017
-1.0666
-1.1581
-1.1017
-1.0925
-1.088
-1.1749
-1.0956
-1.0956
-1.1185
-1.1795
-1.1002
-1.1063
-1.1078
-1.1612
-1.0864
-1.0849
-1.0544
-1.0941
-1.0056
-1.0071
-1.0315
-1.0391
-0.99182
-0.98419
-0.96588
-1.0529
-1.0025
-1.0147
-1.0315
-1.1368
-1.0971
-1.1276
-1.1551
-1.1856
-1.1215
-1.1353
-1.1795
-1.2024
-1.1566
-1.1627
-1.1871
-1.1841
-1.178
-1.1963
-1.326
-1.2939
-1.0574
-0.73395
-0.43488
-0.056458
0.2655
0.41351
0.094604
-0.53864
-0.77972
-0.90942
-0.92316
-0.97351
-0.9964
-0.99335
-1.0544
-1.0498
-1.0757
-1.0574
-1.1063
-1.0696
-1.0483
-0.9964
-1.0666
-1.0178
-1.0239
-0.98419
-1.0544
-0.98877
-0.96436
-0.914
-1.0132
-0.92621
-0.9079
-0.84229
-0.914
-0.84381
-0.83008
-0.75531
-0.82092
-0.737
-0.68817
-0.65765
-0.74768
-0.6485
-0.59052
-0.52338
-0.61188
-0.54932
-0.53864
-0.53253
-0.63324
-0.58746
-0.62561
-0.62866
-0.81482
-0.80566
-0.84534
-0.83771
-1.0468
-1.0361
-1.0406
-0.98724
-1.1597
-1.1215
-1.0864
-1.0391
-1.1627
-1.1139
-1.0986
-1.0757
-1.152
-1.1078
-1.0818
-1.0391
-1.1414
-1.0895
-1.0483
-1.0284
-1.1856
-1.0818
-1.0513
-1.0452
-1.0971
-1.0956
-1.03
-1.0712
-1.1566
-1.0864
-1.033
-1.0315
-1.0941
-1.0818
-1.062
-1.0513
-1.123
-1.1246
-1.0437
-0.99792
-1.0406
-1.0559
-0.99487
-0.97809
-1.0239
-0.98572
-0.92926
-0.93689
-0.9552
-0.9964
-0.95367
-0.95215
-1.0208
-1.0712
-1.0269
-1.0971
-1.1139
-1.1017
-1.0269
-1.0498
-1.1124
-1.1185
-1.0544
-1.0284
-1.0925
-1.1307
-1.0498
-1.0635
-1.207
-1.1795
-0.90485
-0.5722
-0.23651
0.10986
0.4715
0.5249
0.1297
-0.52948
-0.65918
-0.81482
-0.84229
-0.86975
-0.75989
-0.79956
-0.88043
-0.94757
-0.84381
-0.83466
-0.88196
-0.91858
-0.83618
-0.81482
-0.83771
-0.87433
-0.77667
-0.73242
-0.77515
-0.81635
-0.72784
-0.737
-0.76294
-0.77362
-0.62714
-0.63171
-0.65918
-0.69733
-0.59967
-0.54474
-0.56458
-0.57373
-0.43945
-0.42419
-0.42267
-0.46234
-0.35248
-0.35553
-0.36163
-0.4425
-0.31891
-0.33112
-0.38452
-0.50964
-0.42419
-0.46539
-0.58594
-0.72479
-0.66376
-0.6958
-0.78888
-0.93231
-0.80261
-0.8255
-0.90027
-0.99945
-0.87433
-0.89264
-0.93231
-1.0193
-0.87433
-0.8667
-0.93689
-1.0254
-0.90027
-0.87128
-0.92163
-0.9964
-0.84381
-0.85144
-0.94604
-1.0345
-0.88043
-0.86212
-0.96283
-1.0269
-0.90179
-0.88501
-1.0239
-1.033
-0.91553
-0.88348
-1.0406
-1.0864
-0.96436
-0.92316
-1.0696
-1.0559
-0.97809
-0.93994
-1.0178
-1.0269
-0.91705
-0.8728
-1.0147
-1.0269
-0.90179
-0.8606
-0.97198
-0.99487
-0.9079
-0.89264
-1.0406
-1.1139
-1.0208
-0.99945
-1.1246
-1.1841
-1.0941
-1.033
-1.1765
-1.1871
-1.088
-1.033
-1.1902
-1.2146
-1.0941
-1.0605
-1.2894
-1.3611
-1.1139
-0.81787
-0.62561
-0.22736
0.17853
0.54321
0.36926
-0.035095
-0.49286
-0.70801
-0.89569
-0.92621
-0.85907
-0.90637
-0.97198
-1.0452
-0.94604
-0.914
-0.9903
-1.088
-0.92926
-0.93842
-1.004
-1.0437
-0.91095
-0.85449
-0.89569
-0.99792
-0.83008
-0.78583
-0.88043
-0.97046
-0.81787
-0.75989
-0.8255
-0.84534
-0.68512
-0.69885
-0.75073
-0.65002
-0.55847
-0.57373
-0.61798
-0.55389
-0.29144
-0.2594
-0.42572
-0.5661
-0.354
-0.42267
-0.61798
-0.67749
-0.50354
-0.49744
-0.68359
-0.79956
-0.70953
-0.74768
-0.89874
-0.99335
-0.87128
-0.88043
-0.96741
-1.0254
-0.91705
-0.92621
-1.0559
-1.0742
-0.95367
-0.89874
-1.004
-1.0178
-0.99487
-0.90179
-0.97961
-0.96283
-0.81787
-0.86975
-0.95215
-1.0101
-0.93842
-0.92468
-0.98724
-0.90027
-0.87433
-0.91095
-0.96741
-0.93384
-0.95978
-0.91553
-0.99335
-0.97809
-0.88654
-0.84534
-0.96436
-0.92621
-0.88196
-0.88348
-1.03
-1.0178
-0.88806
-0.89417
-1.0132
-0.88806
-0.88348
-0.91705
-0.9491
-0.89264
-0.76752
-0.79803
-0.8606
-0.90332
-0.81787
-0.79803
-0.81329
-0.71564
-0.61798
-0.63477
-0.87891
-0.95825
-0.93079
-0.86975
-0.99945
-0.98572
-0.89569
-0.91553
-1.0315
-0.99182
-0.90942
-1.0452
-1.0696
-0.89722
-0.86365
-0.91705
-1.1215
-1.0971
-1.1887
-1.0361
-0.74615
-0.39368
0.17853
0.28839
0.54474
0.44403
0.07019
-0.39368
-0.69275
-0.77515
-0.69733
-0.7843
-0.89874
-0.79498
-0.84534
-0.85602
-0.9903
-0.8316
-0.88043
-0.81482
-0.98419
-0.87128
-0.69733
-0.57068
-0.84839
-0.93384
-0.85602
-0.71106
-0.69733
-0.75226
-0.80719
-0.74768
-0.73395
-0.67749
-0.69427
-0.54932
-0.45166
-0.48828
-0.63782
-0.58899
-0.57983
-0.49438
-0.43182
-0.34485
-0.40436
-0.36316
-0.26245
-0.25635
-0.20447
-0.38605
-0.50659
-0.56305
-0.59967
-0.65002
-0.63171
-0.71106
-0.7843
-0.79803
-0.86823
-1.004
-0.87891
-0.82397
-0.9491
-1.0452
-0.76447
-0.90179
-1.1719
-1.1795
-1.091
-1.0925
-1.0101
-1.0315
-1.0208
-0.9491
-0.96436
-1.0468
-0.98267
-1.0147
-0.8316
-0.93842
-1.0803
-1.1017
-0.94147
-1.088
-1.0544
-0.96588
-0.77972
-0.84076
-1.0468
-1.2573
-1.1047
-1.1398
-1.091
-1.091
-0.99487
-1.0895
-1.0498
-0.98572
-0.69427
-1.0452
-1.0223
-0.87738
-0.54779
-1.0818
-1.236
-1.0849
-0.95673
-1.0162
-0.96283
-0.94604
-0.83618
-1.0315
-0.99182
-0.87585
-0.86975
-1.207
-1.1322
-1.033
-1.0345
-1.1444
-1.149
-1.0239
-0.9964
-1.1215
-1.1017
-0.9964
-0.75073
-1.0681
-1.3077
-1.3153
-1.0651
-0.70953
-0.39673
-0.097656
0.16022
0.50507
0.3479
-0.068665
-0.53864
-0.74768
-0.83771
-0.8194
-0.84534
-0.8667
-0.81787
-0.66528
-0.85144
-0.93536
-0.93689
-0.94757
-0.9613
-0.95825
-0.90942
-0.83618
-0.83923
-0.88196
-0.90485
-0.82855
-0.78125
-0.79041
-0.78735
-0.70038
-0.66071
-0.50812
-0.79193
-0.71564
-0.55389
-0.61188
-0.72632
-0.65613
-0.60577
-0.56458
-0.53864
-0.44098
-0.38757
-0.16479
-0.42572
-0.36621
-0.46387
-0.51422
-0.58136
-0.46387
-0.39063
-0.5722
-0.71411
-0.58441
-0.65918
-0.83771
-0.8667
-0.66223
-0.62714
-0.98419
-1.1581
-0.94757
-0.88806
-0.97198
-1.059
-1.0284
-0.98877
-1.0147
-0.94757
-0.88654
-1.0239
-0.99792
-0.98877
-0.76904
-1.0193
-1.0941
-1.0605
-0.94452
-0.93079
-1.0132
-1.0468
-0.92468
-0.89264
-0.99792
-1.059
-0.97504
-1.0132
-0.8667
-0.76141
-1.1246
-1.2497
-1.1414
-1.0818
-1.0452
-1.0208
-1.0818
-1.0605
-0.99487
-1.0254
-1.0818
-1.0513
-1.0849
-1.0468
-1.0544
-1.088
-1.0651
-1.0178
-1.1185
-1.123
-1.0712
-1.0605
-1.0818
-1.0513
-1.0147
-0.96893
-1.0529
-1.0483
-0.94147
-0.93384
-0.9964
-1.0178
-0.94757
-0.94147
-1.0818
-1.0651
-1.0452
-0.9964
-1.1002
-1.2283
-1.1505
-1.088
-1.1795
-1.1734
-1.1963
-1.1307
-1.2192
-1.2146
-1.1856
-1.1353
-1.2268
-1.3306
-1.3138
-1.091
-0.91858
-0.61188
-0.07019
0.15106
0.35248
0.23346
-0.21667
-0.63019
-0.93689
-1.0086
-0.93842
-1.0162
-1.1307
-1.0559
-1.091
-1.0345
-1.1566
-1.1444
-1.1215
-1.0757
-1.1154
-1.1276
-1.0803
-1.0681
-1.149
-1.1871
-1.0193
-0.97351
-1.0834
-1.1566
-1.059
-0.97656
-1.0529
-1.0513
-0.93689
-0.89111
-0.94299
-0.93842
-0.77362
-0.67749
-0.74463
-0.89569
-0.75073
-0.65155
-0.72479
-0.75989
-0.62408
-0.57373
-0.68207
-0.74921
-0.65918
-0.60577
-0.75073
-0.91705
-0.80566
-0.85449
-0.99945
-1.1536
-1.0239
-1.0605
-1.2177
-1.3168
-1.1826
-1.1917
-1.2436
-1.3535
-1.2054
-1.1826
-1.2482
-1.3062
-1.1597
-1.1444
-1.2589
-1.3321
-1.1612
-1.1505
-1.2711
-1.3168
-1.1414
-1.1459
-1.239
-1.3031
-1.1719
-1.1627
-1.2634
-1.3382
-1.2009
-1.1673
-1.2741
-1.326
-1.1978
-1.1688
-1.2711
-1.3321
-1.2177
-1.207
-1.2909
-1.329
-1.2054
-1.1856
-1.2985
-1.3596
-1.2146
-1.1749
-1.3
-1.326
-1.2146
-1.181
-1.2878
-1.3626
-1.2054
-1.1688
-1.2161
-1.2711
-1.1414
-1.1185
-1.2177
-1.2497
-1.0956
-1.0864
-1.1597
-1.1795
-1.0712
-1.1002
-1.2146
-1.2634
-1.1932
-1.1841
-1.2894
-1.3428
-1.2314
-1.2115
-1.3123
-1.3733
-1.2695
-1.2375
-1.3092
-1.3367
-1.2619
-1.2726
-1.4313
-1.4847
-1.2207
-0.94452
-0.737
-0.30975
0.042725
0.34943
0.16327
-0.3479
-0.72632
-0.93842
-1.1078
-1.0925
-1.0254
-1.0391
-1.1353
-1.2085
-1.1093
-1.0468
-1.152
-1.1993
-1.0788
-1.0361
-1.1383
-1.1581
-1.0208
-0.99182
-1.0757
-1.1002
-0.9552
-0.92163
-1.004
-1.03
-0.91858
-0.89874
-0.93384
-0.94452
-0.83466
-0.76904
-0.83618
-0.81329
-0.67902
-0.67902
-0.69122
-0.67596
-0.55847
-0.55389
-0.61798
-0.59204
-0.51575
-0.50354
-0.6012
-0.63171
-0.59662
-0.60577
-0.76294
-0.84381
-0.81635
-0.85602
-0.99335
-1.0681
-1.03
-1.0498
-1.1093
-1.1627
-1.1124
-1.1322
-1.1856
-1.1932
-1.1047
-1.1139
-1.1734
-1.2009
-1.1215
-1.1215
-1.1429
-1.1581
-1.0849
-1.1185
-1.1551
-1.1429
-1.0971
-1.0757
-1.1215
-1.1322
-1.1139
-1.0681
-1.0971
-1.0971
-1.0681
-1.091
-1.1353
-1.1444
-1.1002
-1.1063
-1.1536
-1.1307
-1.1017
-1.1108
-1.1658
-1.152
-1.0696
-1.0834
-1.12
-1.0864
-1.0162
-1.0254
-1.0941
-1.0452
-1.004
-1.0178
-1.0254
-1.0498
-1.03
-0.99335
-1.0864
-1.1414
-1.123
-1.1566
-1.2009
-1.2131
-1.149
-1.1703
-1.2222
-1.2115
-1.1276
-1.1734
-1.2222
-1.2024
-1.1368
-1.1902
-1.3565
-1.3092
-1.062
-0.75989
-0.43182
-0.05188
0.27771
0.3479
0.045776
-0.56458
-0.77667
-0.98267
-0.98572
-0.97656
-0.96588
-0.99945
-1.0712
-1.1047
-1.0178
-1.0345
-1.0788
-1.0941
-1.0269
-1.0223
-1.0376
-1.0544
-0.98724
-0.98724
-1.0132
-0.99487
-0.92621
-0.95215
-0.95673
-0.94299
-0.85144
-0.8667
-0.8728
-0.86517
-0.77362
-0.7843
-0.77057
-0.74463
-0.6485
-0.67139
-0.65765
-0.61798
-0.53101
-0.57068
-0.54626
-0.56305
-0.50812
-0.54474
-0.56763
-0.62256
-0.59814
-0.69427
-0.78735
-0.84839
-0.84534
-0.95978
-1.0147
-1.0651
-1.0315
-1.1169
-1.1505
-1.1398
-1.0956
-1.1856
-1.1581
-1.1597
-1.1124
-1.1932
-1.1734
-1.1658
-1.1063
-1.1795
-1.1902
-1.1475
-1.1078
-1.1673
-1.1536
-1.1414
-1.1093
-1.152
-1.1322
-1.1383
-1.0925
-1.1444
-1.1368
-1.1307
-1.0834
-1.1444
-1.1566
-1.1475
-1.1063
-1.1597
-1.1673
-1.1368
-1.1017
-1.1734
-1.1841
-1.1429
-1.0986
-1.1612
-1.1902
-1.152
-1.1459
-1.1551
-1.1322
-1.0864
-1.033
-1.0818
-1.059
-1.033
-0.99945
-1.0391
-1.0757
-0.97351
-0.9903
-1.0635
-1.1017
-1.0468
-1.0864
-1.178
-1.1978
-1.1383
-1.1673
-1.207
-1.236
-1.1658
-1.1612
-1.1993
-1.2146
-1.1414
-1.1444
-1.2039
-1.2711
-1.2939
-1.2115
-0.9964
-0.72174
-0.29602
0.056458
0.31738
0.39368
0.14801
-0.44098
-0.70801
-0.9079
-0.8316
-0.91553
-0.96588
-1.0284
-0.92468
-0.96741
-0.99792
-1.03
-0.95367
-0.95825
-0.9903
-1.0025
-0.90485
-0.91858
-0.95825
-0.95367
-0.87128
-0.88501
-0.89417
-0.90179
-0.80719
-0.80566
-0.80414
-0.84534
-0.7431
-0.71259
-0.72327
-0.70343
-0.58746
-0.59052
-0.57831
-0.56
-0.46539
-0.45471
-0.45166
-0.45624
-0.354
-0.39063
-0.40894
-0.45929
-0.383
-0.47913
-0.52338
-0.58441
-0.57678
-0.66833
-0.78278
-0.87128
-0.85907
-0.90637
-0.94604
-1.0223
-0.96283
-0.98724
-1.0483
-1.0605
-1.0071
-0.97656
-1.0788
-1.0696
-1.0101
-0.97656
-1.0529
-1.0635
-1.0284
-0.96588
-1.0437
-1.0544
-1.0132
-1.001
-1.0361
-1.0452
-1.001
-0.99792
-1.0574
-1.0651
-1.0269
-0.96741
-1.0666
-1.0971
-1.0483
-1.0086
-1.1108
-1.0925
-1.0498
-1.0162
-1.1246
-1.12
-1.091
-1.0208
-1.1108
-1.1261
-1.0681
-1.0071
-1.123
-1.1093
-1.0895
-1.03
-1.149
-1.1353
-1.1078
-1.0239
-1.1459
-1.1307
-1.0956
-0.96893
-1.1002
-1.0513
-1.0025
-0.99792
-1.0818
-1.0361
-1.001
-0.95215
-1.0406
-1.0483
-1.033
-0.9964
-1.1475
-1.1124
-1.123
-1.1154
-1.2115
-1.1719
-1.2161
-1.1246
-1.2283
-1.2238
-1.1841
-1.1353
-1.2329
-1.2573
-1.2466
-1.2512
-1.3397
-1.1307
-0.80109
-0.40436
-0.09613
0.19684
0.42267
0.23041
-0.41351
-0.74463
-0.86517
-0.82855
-0.98267
-1.0864
-1.0132
-0.93842
-1.0452
-1.123
-1.0223
-0.97046
-1.0696
-1.1002
-0.9903
-0.93384
-1.0284
-1.0818
-0.93994
-0.88806
-0.97504
-0.99945
-0.85602
-0.78888
-0.89264
-0.90485
-0.77057
-0.72632
-0.77362
-0.84534
-0.65155
-0.59357
-0.65002
-0.71716
-0.50812
-0.46997
-0.50354
-0.58594
-0.37079
-0.35095
-0.39978
-0.50507
-0.3418
-0.38452
-0.46539
-0.58441
-0.44556
-0.53558
-0.69427
-0.82092
-0.72479
-0.7843
-0.90485
-1.0162
-0.90485
-0.93994
-1.0223
-1.0803
-0.93994
-0.9552
-1.0345
-1.1124
-0.93079
-0.93079
-1.0239
-1.0834
-0.92468
-0.90179
-1.0162
-1.0681
-0.93384
-0.92163
-1.001
-1.03
-0.88806
-0.89417
-0.96741
-1.03
-0.89264
-0.88348
-1.0071
-1.0315
-0.88501
-0.88196
-0.99335
-1.0483
-0.90637
-0.89874
-0.99487
-1.0681
-0.91705
-0.90332
-0.9964
-1.0391
-0.93994
-0.93536
-1.0193
-1.0178
-0.92926
-0.92316
-1.0178
-1.059
-0.94604
-0.914
-1.0193
-1.0468
-0.92468
-0.87891
-0.95215
-0.95215
-0.86365
-0.87128
-0.91858
-0.9079
-0.86517
-0.83313
-0.9079
-0.90637
-0.83618
-0.84686
-0.98572
-1.0361
-0.97198
-0.94299
-1.0437
-1.0849
-0.97656
-0.93384
-1.059
-1.1063
-1.0025
-0.92773
-1.0574
-1.1215
-1.0101
-1.0651
-1.181
-1.0345
-0.61646
-0.25787
0.062561
0.2655
0.59204
0.43182
-0.24719
-0.66528
-0.78735
-0.7843
-0.84229
-0.89569
-0.82092
-0.80566
-0.88806
-0.88654
-0.83466
-0.83771
-0.89722
-0.89569
-0.8316
-0.8316
-0.8667
-0.8667
-0.78278
-0.78735
-0.82855
-0.8316
-0.74463
-0.72021
-0.75989
-0.75684
-0.66833
-0.65308
-0.6958
-0.69275
-0.59204
-0.54779
-0.5722
-0.57983
-0.45624
-0.41809
-0.43335
-0.45013
-0.32959
-0.32349
-0.37384
-0.37079
-0.30823
-0.34637
-0.39673
-0.45776
-0.41199
-0.51422
-0.60272
-0.69885
-0.66681
-0.737
-0.81329
-0.88654
-0.83008
-0.91553
-0.9552
-1.0071
-0.89264
-0.93384
-0.93994
-0.98877
-0.90332
-0.9552
-0.94452
-0.98572
-0.88501
-0.92926
-0.94604
-0.97351
-0.88501
-0.92773
-0.91858
-0.93079
-0.89722
-0.91553
-0.92621
-0.93384
-0.86517
-0.91705
-0.92163
-0.95978
-0.88043
-0.91858
-0.94452
-0.98419
-0.88196
-0.91095
-0.93536
-0.9613
-0.88806
-0.91705
-0.94604
-0.98572
-0.87128
-0.89264
-0.9079
-0.92773
-0.84686
-0.82092
-0.83313
-0.84991
-0.80109
-0.82855
-0.8255
-0.7843
-0.7782
-0.84076
-0.84381
-0.83313
-0.86823
-0.94604
-0.9552
-0.9613
-0.96283
-0.97961
-1.001
-0.96588
-0.9552
-0.98572
-0.99182
-0.96893
-0.96588
-1.0025
-1.0376
-1.1063
-1.0788
-0.91095
-0.61188
-0.26398
0.19836
0.4303
0.62256
0.44556
-0.11749
-0.50049
-0.72327
-0.71564
-0.70343
-0.79041
-0.80872
-0.82092
-0.83466
-0.83771
-0.8316
-0.8194
-0.8255
-0.81177
-0.82245
-0.78278
-0.78125
-0.77972
-0.79498
-0.73853
-0.73242
-0.73853
-0.74005
-0.69122
-0.68665
-0.67749
-0.66528
-0.59357
-0.59509
-0.59204
-0.57526
-0.4837
-0.46234
-0.45624
-0.43793
-0.36163
-0.34027
-0.34943
-0.31586
-0.28839
-0.29449
-0.32196
-0.32349
-0.30212
-0.33875
-0.42114
-0.43793
-0.4776
-0.59052
-0.67749
-0.7019
-0.74005
-0.80872
-0.86517
-0.89722
-0.87891
-0.92621
-0.96588
-0.95673
-0.91858
-0.96741
-0.98877
-0.9613
-0.92773
-0.94604
-0.97351
-0.94299
-0.91858
-0.94604
-0.98419
-0.93231
-0.92926
-0.93384
-0.97198
-0.93842
-0.93384
-0.93994
-0.97504
-0.97809
-0.94299
-0.9491
-1.0086
-0.97504
-0.96893
-0.97809
-1.03
-1.0056
-0.9903
-1.0071
-1.0391
-1.03
-0.98572
-1.0086
-1.0315
-1.0284
-1.0132
-1.0132
-1.0513
-1.0208
-1.0147
-1.0269
-1.0742
-1.0513
-1.03
-1.0437
-1.0941
-1.0605
-1.0529
-1.0651
-1.1063
-1.0376
-1.0086
-1.0269
-1.0437
-1.0147
-0.97046
-0.9552
-1.0376
-0.95978
-0.95978
-0.97656
-0.97198
-0.95215
-0.96893
-0.96893
-1.0376
-1.0574
-1.0757
-1.0529
-1.1246
-1.1139
-1.0956
-1.1063
-1.1627
-1.1414
-1.1108
-1.1002
-1.1505
-1.0971
-1.1154
-1.1673
-1.3214
-1.2009
-0.95215
-0.66528
-0.38147
0.045776
0.40436
0.50812
0.19836
-0.35553
-0.57831
-0.81024
-0.8606
-0.88654
-0.88501
-0.93994
-0.98419
-0.95825
-0.92773
-0.93994
-1.0086
-0.97961
-0.94147
-0.93689
-0.97198
-0.94299
-0.89722
-0.90637
-0.91858
-0.88806
-0.84076
-0.86517
-0.86212
-0.82092
-0.77057
-0.76294
-0.78125
-0.76294
-0.68817
-0.68207
-0.68359
-0.62256
-0.5722
-0.54626
-0.55389
-0.50964
-0.4303
-0.44861
-0.46692
-0.42572
-0.37231
-0.42267
-0.47302
-0.48828
-0.46234
-0.53101
-0.62714
-0.69733
-0.68817
-0.77057
-0.87433
-0.92773
-0.90179
-0.9491
-1.0193
-1.0361
-1.0071
-1.0101
-1.0544
-1.0605
-1.0376
-1.033
-1.0605
-1.059
-1.001
-1.0391
-1.0483
-1.0406
-1.0147
-1.0178
-1.0513
-1.0483
-0.98267
-1.0178
-1.0605
-1.0529
-1.0025
-1.0223
-1.0666
-1.0742
-1.0178
-1.0254
-1.0834
-1.0834
-1.03
-1.0788
-1.1108
-1.1169
-1.0498
-1.0834
-1.123
-1.1398
-1.0895
-1.062
-1.149
-1.123
-1.0849
-1.0849
-1.1215
-1.1505
-1.0696
-1.1108
-1.1612
-1.1398
-1.091
-1.1078
-1.1414
-1.1536
-1.062
-1.059
-1.0849
-1.0696
-1.0376
-1.0239
-1.0559
-1.0788
-0.9964
-0.9903
-1.0712
-1.1078
-1.0605
-1.0895
-1.149
-1.1902
-1.1703
-1.1658
-1.1917
-1.2192
-1.1795
-1.1612
-1.2299
-1.2787
-1.2009
-1.149
-1.2054
-1.265
-1.3138
-1.2878
-1.1841
-0.96283
-0.67902
-0.13123
0.036621
0.33417
0.30365
-0.11292
-0.61798
-0.88043
-0.93994
-0.90027
-1.0376
-1.1093
-1.0513
-1.062
-1.12
-1.1429
-1.0956
-1.0391
-1.1078
-1.1444
-1.0849
-1.0391
-1.1124
-1.1368
-1.0101
-1.004
-1.0574
-1.0391
-0.97046
-0.93536
-1.0025
-1.0132
-0.92316
-0.86517
-0.90942
-0.91858
-0.81024
-0.76294
-0.80566
-0.80566
-0.66071
-0.63019
-0.68512
-0.67749
-0.58136
-0.56
-0.60272
-0.68054
-0.56763
-0.59204
-0.70038
-0.77057
-0.75226
-0.79041
-0.91705
-0.9903
-0.95978
-1.0391
-1.1566
-1.1978
-1.1353
-1.1551
-1.2238
-1.2726
-1.1765
-1.2146
-1.2619
-1.2772
-1.1856
-1.2009
-1.2695
-1.2802
-1.1627
-1.1932
-1.2299
-1.2634
-1.1749
-1.1749
-1.2329
-1.2512
-1.1749
-1.1978
-1.2512
-1.2695
-1.1917
-1.1978
-1.2604
-1.2451
-1.1917
-1.2161
-1.2726
-1.265
-1.207
-1.236
-1.2833
-1.2848
-1.2207
-1.2161
-1.2695
-1.2772
-1.2222
-1.2115
-1.2665
-1.2711
-1.239
-1.2466
-1.2772
-1.2405
-1.21
-1.2146
-1.2711
-1.2512
-1.2314
-1.2314
-1.2512
-1.2283
-1.123
-1.1322
-1.178
-1.1993
-1.1612
-1.1444
-1.1795
-1.1429
-1.1185
-1.1475
-1.1932
-1.1581
-1.1871
-1.2436
-1.2741
-1.2695
-1.2619
-1.2695
-1.326
-1.2955
-1.2466
-1.2527
-1.2848
-1.3123
-1.2726
-1.2604
-1.3443
-1.4557
-1.4038
-1.1963
-0.96741
-0.68359
-0.17548
0.067139
0.28992
0.13885
-0.31281
-0.69275
-0.9903
-1.0239
-0.99335
-1.0529
-1.149
-1.1353
-1.1108
-1.1475
-1.1749
-1.1841
-1.1215
-1.1398
-1.1658
-1.1215
-1.0788
-1.0971
-1.1154
-1.088
-1.033
-1.0544
-1.0681
-1.0178
-0.98877
-1.001
-0.99182
-0.93994
-0.90942
-0.91248
-0.9079
-0.85449
-0.78278
-0.76904
-0.74158
-0.7309
-0.64087
-0.65155
-0.65613
-0.61951
-0.56152
-0.58746
-0.60883
-0.62256
-0.57831
-0.61798
-0.69427
-0.76294
-0.79041
-0.8667
-0.96283
-1.0086
-1.0361
-1.0651
-1.1353
-1.1902
-1.123
-1.1627
-1.207
-1.2299
-1.1826
-1.2054
-1.1917
-1.1932
-1.1246
-1.1597
-1.2009
-1.207
-1.1536
-1.1841
-1.1459
-1.1734
-1.1566
-1.1917
-1.1703
-1.1703
-1.1322
-1.1795
-1.2024
-1.1978
-1.1536
-1.1978
-1.2009
-1.1963
-1.1475
-1.1902
-1.1963
-1.2009
-1.1856
-1.2283
-1.2344
-1.2115
-1.1749
-1.1932
-1.1932
-1.1887
-1.1459
-1.1612
-1.1368
-1.1566
-1.1124
-1.12
-1.1292
-1.1185
-1.0498
-1.1139
-1.149
-1.1459
-1.152
-1.1978
-1.236
-1.2436
-1.2207
-1.2314
-1.2451
-1.2512
-1.2161
-1.2756
-1.2482
-1.2039
-1.1978
-1.2268
-1.2573
-1.3046
-1.3885
-1.2711
-1.0681
-0.73242
-0.30518
0.065613
0.24719
0.27618
-0.088501
-0.72479
-0.97198
-1.0681
-0.99182
-0.98724
-1.0437
-1.0529
-1.0513
-1.0788
-1.0956
-1.0498
-1.0544
-1.0742
-1.0818
-1.0178
-1.0101
-1.0025
-1.033
-1.0071
-0.9903
-0.96283
-0.97809
-0.93079
-0.914
-0.92926
-0.92316
-0.84839
-0.86975
-0.84991
-0.80261
-0.737
-0.73853
-0.70953
-0.69122
-0.61951
-0.58441
-0.56458
-0.57983
-0.52795
-0.51727
-0.55847
-0.54016
-0.52643
-0.50354
-0.59509
-0.65765
-0.66986
-0.74463
-0.82855
-0.91095
-0.94452
-0.97961
-1.0178
-1.0757
-1.0651
-1.1063
-1.1322
-1.1276
-1.1185
-1.1276
-1.152
-1.1536
-1.1047
-1.1276
-1.1703
-1.1536
-1.0925
-1.0971
-1.1475
-1.1353
-1.1063
-1.1078
-1.149
-1.1108
-1.0818
-1.0956
-1.1368
-1.1169
-1.091
-1.1108
-1.1749
-1.1368
-1.1276
-1.1139
-1.1688
-1.1292
-1.1108
-1.1078
-1.1139
-1.0757
-1.0651
-1.0544
-1.0971
-1.0239
-1.0437
-1.0361
-1.0635
-1.0574
-1.0437
-1.0498
-1.1353
-1.152
-1.1658
-1.149
-1.2329
-1.2085
-1.1917
-1.1841
-1.2238
-1.2024
-1.21
-1.1978
-1.2604
-1.2146
-1.207
-1.2268
-1.3718
-1.3458
-1.1169
-0.83313
-0.50049
0.0061035
0.25024
0.45319
0.14496
-0.38605
-0.72021
-0.91705
-0.9552
-0.95215
-0.9903
-1.0132
-1.0925
-1.0513
-1.0269
-1.0239
-1.0773
-1.0452
-1.0208
-0.98877
-1.0483
-1.0208
-0.9964
-0.97656
-1.0193
-0.9613
-0.914
-0.90942
-0.94604
-0.89569
-0.8606
-0.84381
-0.8606
-0.80872
-0.75684
-0.72937
-0.73853
-0.68359
-0.60577
-0.57831
-0.61493
-0.56152
-0.47607
-0.48676
-0.53101
-0.47607
-0.43793
-0.46997
-0.53253
-0.54779
-0.55847
-0.60577
-0.70801
-0.77515
-0.78735
-0.85449
-0.92621
-0.95367
-0.9491
-1.0025
-1.0849
-1.0544
-1.0223
-1.0361
-1.0681
-1.0941
-1.0178
-1.0605
-1.0941
-1.0681
-1.004
-1.0315
-1.0574
-1.0498
-0.95367
-0.99945
-1.0468
-1.0361
-0.98877
-1.0254
-1.0193
-1.0239
-0.97656
-1.0284
-1.0406
-1.0437
-0.97504
-1.0239
-1.0468
-1.0452
-1.0056
-1.0269
-1.0468
-1.0635
-0.9964
-1.0178
-0.99792
-0.96893
-0.91095
-0.9491
-0.96893
-0.97961
-0.914
-0.94757
-0.94757
-0.92163
-0.87738
-0.91858
-0.98877
-1.0284
-1.0162
-1.0345
-1.0956
-1.1002
-1.0681
-1.0635
-1.1169
-1.1002
-1.0696
-1.1002
-1.1414
-1.1185
-1.062
-1.0773
-1.1627
-1.2756
-1.1826
-0.96893
-0.70343
-0.33112
0.10376
0.4303
0.48523
0.23041
-0.29144
-0.58136
-0.80566
-0.8194
-0.82397
-0.88654
-0.95673
-0.96283
-0.93231
-0.93689
-0.98724
-0.96436
-0.92621
-0.91705
-0.94299
-0.94147
-0.92316
-0.89264
-0.92926
-0.91248
-0.86517
-0.84991
-0.89722
-0.87433
-0.81635
-0.77057
-0.79498
-0.76141
-0.72479
-0.68207
-0.71106
-0.6546
-0.58594
-0.56763
-0.59357
-0.53864
-0.46844
-0.44098
-0.49591
-0.46234
-0.43335
-0.43945
-0.50812
-0.50354
-0.49591
-0.53406
-0.66376
-0.72327
-0.71106
-0.7782
-0.87433
-0.92316
-0.95978
-0.97809
-1.0498
-1.0666
-1.0513
-1.0513
-1.0925
-1.1108
-1.062
-1.0284
-1.088
-1.1185
-1.0788
-1.0437
-1.0834
-1.088
-1.03
-1.0025
-1.0818
-1.1078
-1.033
-1.0071
-1.0773
-1.088
-1.0269
-0.98724
-1.0757
-1.1108
-1.0376
-0.99792
-1.0712
-1.1078
-1.0361
-1.0208
-1.1108
-1.1292
-1.0452
-1.0178
-1.0986
-1.1078
-1.0406
-1.0254
-1.1154
-1.1154
-1.0147
-0.96588
-1.0452
-1.0513
-0.95978
-0.94147
-0.98267
-1.0208
-0.91858
-0.88196
-0.9613
-1.0345
-0.94452
-0.99335
-1.0696
-1.1261
-1.0651
-1.0513
-1.1215
-1.1734
-1.0513
-1.0773
-1.1353
-1.1719
-1.0635
-1.0529
-1.1276
-1.1536
-1.1047
-1.2268
-1.1917
-1.0101
-0.59967
-0.20142
0.11292
0.36774
0.54016
0.27771
-0.38147
-0.65613
-0.72632
-0.73853
-0.8606
-0.95367
-0.85449
-0.88348
-0.92621
-0.94757
-0.86517
-0.89264
-0.94604
-0.94604
-0.84534
-0.84381
-0.88043
-0.90485
-0.81635
-0.80872
-0.85449
-0.83771
-0.76141
-0.74463
-0.77209
-0.76752
-0.68207
-0.66071
-0.69733
-0.67596
-0.56763
-0.54932
-0.59052
-0.54474
-0.42725
-0.39368
-0.43335
-0.42114
-0.35858
-0.3418
-0.38605
-0.37842
-0.32196
-0.3479
-0.43182
-0.45624
-0.46387
-0.53253
-0.6485
-0.69427
-0.70953
-0.77515
-0.86212
-0.89111
-0.87585
-0.88348
-0.96436
-0.98724
-0.93536
-0.89874
-0.9613
-0.96741
-0.90637
-0.90179
-0.9491
-0.94604
-0.90637
-0.92316
-0.95367
-0.93994
-0.90637
-0.93079
-0.95825
-0.92316
-0.90027
-0.92316
-0.96741
-0.94757
-0.90332
-0.91858
-0.95215
-0.95825
-0.93842
-0.92926
-0.97198
-0.99335
-0.95825
-0.92316
-0.97351
-0.98877
-0.9491
-0.93231
-0.98572
-0.9903
-0.90637
-0.85297
-0.91095
-0.91858
-0.90332
-0.84381
-0.88501
-0.88654
-0.81177
-0.84839
-0.89874
-0.91248
-0.90027
-0.95978
-1.0132
-1.0452
-0.99945
-1.033
-1.0605
-1.0788
-1.0208
-1.059
-1.0498
-1.0529
-1.0483
-1.0574
-1.0529
-1.0895
-1.1536
-1.1993
-1.0269
-0.72479
-0.37384
0.068665
0.30212
0.49133
0.35706
-0.23651
-0.62866
-0.84076
-0.8255
-0.81177
-0.83618
-0.90027
-0.85602
-0.89722
-0.91095
-0.91858
-0.8728
-0.89417
-0.87891
-0.90179
-0.8728
-0.88348
-0.84381
-0.83771
-0.78583
-0.82397
-0.8194
-0.81177
-0.75989
-0.74921
-0.7431
-0.74615
-0.69275
-0.68512
-0.6546
-0.61951
-0.58136
-0.5722
-0.53101
-0.53711
-0.46997
-0.44098
-0.42725
-0.41962
-0.36926
-0.3891
-0.40588
-0.40741
-0.38605
-0.45013
-0.47302
-0.51422
-0.55542
-0.62714
-0.66681
-0.7431
-0.75836
-0.83618
-0.87738
-0.87585
-0.90027
-0.93536
-0.95367
-0.93842
-0.90485
-0.92926
-0.95673
-0.91248
-0.92316
-0.94147
-0.94452
-0.9079
-0.88806
-0.90332
-0.92316
-0.914
-0.89417
-0.90027
-0.92163
-0.88196
-0.88043
-0.88806
-0.92621
-0.89111
-0.88196
-0.90637
-0.94757
-0.91553
-0.90485
-0.914
-0.92926
-0.90485
-0.92316
-0.92926
-0.97809
-0.92316
-0.92316
-0.92468
-0.95825
-0.89264
-0.87433
-0.88043
-0.88043
-0.84534
-0.85449
-0.84534
-0.85144
-0.81177
-0.82245
-0.84229
-0.85907
-0.86365
-0.91705
-0.93689
-0.97046
-0.97046
-1.001
-0.98419
-1.0345
-0.99182
-0.97046
-1.0056
-1.0284
-0.99945
-1.0071
-1.0239
-1.0574
-1.0773
-1.1444
-1.0315
-0.83771
-0.53406
-0.11597
0.19379
0.5249
0.55542
0.26703
-0.37384
-0.62714
-0.78125
-0.6958
-0.79193
-0.85297
-0.84991
-0.85449
-0.89569
-0.8728
-0.86365
-0.8667
-0.90027
-0.87585
-0.8255
-0.84381
-0.85907
-0.83771
-0.85602
-0.8194
-0.81635
-0.79956
-0.77667
-0.75531
-0.74158
-0.72937
-0.68817
-0.6546
-0.70038
-0.63019
-0.61188
-0.56458
-0.57068
-0.51575
-0.49744
-0.45471
-0.45776
-0.39368
-0.39368
-0.38147
-0.42267
-0.39063
-0.39215
-0.40283
-0.48523
-0.49591
-0.56
-0.59052
-0.71259
-0.74921
-0.77972
-0.81024
-0.9079
-0.91705
-0.92316
-0.93231
-1.0086
-0.98572
-0.99335
-0.95367
-0.9964
-0.96741
-0.96741
-0.9613
-0.98419
-0.97046
-0.9552
-0.92773
-0.99487
-0.95215
-0.94299
-0.94147
-0.98572
-0.9552
-0.93994
-0.95673
-0.99792
-0.95978
-0.96588
-0.94604
-1.0101
-0.98572
-0.96436
-0.97656
-1.0101
-0.98724
-0.96741
-0.98419
-1.0269
-1.0025
-0.97504
-0.98724
-1.0391
-1.0193
-0.97046
-0.97046
-1.0193
-0.98572
-0.92163
-0.914
-0.9491
-0.92468
-0.89111
-0.87128
-0.91858
-0.92316
-0.85449
-0.87738
-0.92926
-0.92621
-0.92773
-0.9903
-1.0559
-1.0483
-1.0193
-1.0315
-1.059
-1.0513
-1.0223
-1.0498
-1.0803
-1.0681
-1.0162
-1.0513
-1.088
-1.1124
-1.1597
-1.123
-0.90332
-0.63324
-0.18311
0.16479
0.46844
0.53101
0.31281
-0.31281
-0.56763
-0.7309
-0.69122
-0.78125
-0.8667
-0.86823
-0.83466
-0.88654
-0.90027
-0.88806
-0.82855
-0.87585
-0.88806
-0.86823
-0.81024
-0.85907
-0.86212
-0.85907
-0.76447
-0.78735
-0.83008
-0.79041
-0.71259
-0.70801
-0.72021
-0.7019
-0.64087
-0.64087
-0.63171
-0.61188
-0.52338
-0.51422
-0.52643
-0.48981
-0.3952
-0.41504
-0.43182
-0.38452
-0.33417
-0.33875
-0.383
-0.3891
-0.37231
-0.42419
-0.49286
-0.51727
-0.54169
-0.62561
-0.71869
-0.77515
-0.79803
-0.8667
-0.91705
-0.94299
-0.89874
-0.96436
-1.0056
-0.98724
-0.9491
-0.98267
-1.001
-0.99792
-0.93994
-0.97961
-1.004
-0.98572
-0.93994
-0.94299
-0.97656
-0.98572
-0.93689
-0.97504
-0.97961
-0.9613
-0.95367
-0.96283
-1.0056
-0.97656
-0.94452
-0.97656
-0.98877
-0.97504
-0.98877
-1.0025
-1.0239
-0.98724
-0.97351
-0.98877
-1.0345
-1.0071
-1.0223
-0.9903
-1.062
-1.0025
-1.0147
-0.99945
-1.0666
-1.0178
-0.98572
-0.99792
-1.0757
-1.0437
-1.004
-0.99487
-1.0254
-0.97198
-0.94299
-0.90942
-0.97046
-0.94757
-0.92621
-0.88196
-0.94757
-0.90942
-0.90027
-0.89417
-0.97656
-0.99792
-0.9964
-1.0193
-1.1047
-1.0696
-1.0574
-1.0529
-1.1124
-1.0834
-1.0788
-1.0406
-1.1169
-1.1139
-1.0864
-1.0559
-1.2192
-1.2466
-1.0818
-0.82397
-0.58136
-0.082397
0.19836
0.55389
0.44403
0.10223
-0.3891
-0.63324
-0.83008
-0.80109
-0.82245
-0.85907
-0.92468
-0.93079
-0.92316
-0.90027
-0.9613
-0.92773
-0.90027
-0.89111
-0.94299
-0.90485
-0.89569
-0.84839
-0.88043
-0.84991
-0.81177
-0.79803
-0.84686
-0.83008
-0.7431
-0.73242
-0.75226
-0.75684
-0.65613
-0.62561
-0.64087
-0.66071
-0.53558
-0.5127
-0.53253
-0.53558
-0.42419
-0.41656
-0.40588
-0.44403
-0.3479
-0.38452
-0.4303
-0.4837
-0.42572
-0.4837
-0.53558
-0.63782
-0.63019
-0.70648
-0.79498
-0.90027
-0.85144
-0.90027
-0.92773
-1.0056
-0.92468
-0.93536
-0.97198
-1.0345
-0.92163
-0.92163
-0.97809
-1.0315
-0.9079
-0.9079
-0.94604
-1.0086
-0.92163
-0.90179
-0.93994
-0.99335
-0.90179
-0.88348
-0.93079
-0.99335
-0.89569
-0.86517
-0.92926
-1.0056
-0.90027
-0.88196
-0.94604
-0.99487
-0.92163
-0.91858
-0.97046
-1.0239
-0.92316
-0.90637
-0.97504
-1.0178
-0.93994
-0.93536
-1.0345
-1.0269
-0.91553
-0.89722
-0.94452
-0.96588
-0.8667
-0.83008
-0.91095
-0.93079
-0.8316
-0.84381
-0.89569
-0.89569
-0.8194
-0.83466
-0.93079
-1.001
-0.9552
-0.94757
-1.0498
-1.0864
-1.0162
-0.98877
-1.0696
-1.0986
-1.0391
-0.99487
-1.1139
-1.1185
-1.0269
-0.99487
-1.1566
-1.2177
-1.0651
-0.82397
-0.59662
-0.14038
0.2594
0.57068
0.45013
0.11139
-0.33875
-0.57068
-0.77057
-0.79803
-0.7782
-0.81482
-0.90942
-0.94299
-0.88806
-0.88196
-0.94147
-0.93842
-0.87738
-0.85602
-0.91705
-0.92773
-0.85297
-0.83771
-0.87738
-0.89874
-0.79956
-0.79498
-0.80566
-0.80414
-0.72479
-0.72021
-0.71564
-0.71716
-0.61035
-0.57831
-0.61493
-0.59204
-0.49286
-0.46539
-0.48065
-0.4715
-0.37994
-0.34943
-0.38147
-0.41656
-0.31891
-0.34485
-0.38757
-0.41504
-0.40283
-0.43335
-0.53101
-0.58899
-0.58594
-0.66986
-0.77362
-0.83771
-0.80719
-0.84076
-0.90179
-0.90485
-0.88501
-0.914
-0.94604
-0.9552
-0.87128
-0.89569
-0.9491
-0.93536
-0.90179
-0.88196
-0.90485
-0.89874
-0.86517
-0.87585
-0.93079
-0.91553
-0.85602
-0.86212
-0.90637
-0.91553
-0.85144
-0.89111
-0.91858
-0.91858
-0.90027
-0.91095
-0.89874
-0.89874
-0.87128
-0.87738
-0.87738
-0.86365
-0.80719
-0.82245
-0.84229
-0.81329
-0.79498
-0.79041
-0.83923
-0.85297
-0.8316
-0.84991
-0.92926
-0.97961
-0.95367
-0.93384
-0.95978
-0.97809
-0.95978
-0.93231
-1.0086
-1.0132
-0.96283
-0.94604
-0.99487
-1.0071
-0.97504
-1.0757
-1.1353
-0.95825
-0.59967
-0.24872
0.1358
0.40588
0.60272
0.38147
-0.21362
-0.55695
-0.7431
-0.76141
-0.79498
-0.80566
-0.79346
-0.80414
-0.85907
-0.84381
-0.81482
-0.82855
-0.86517
-0.83008
-0.80719
-0.81635
-0.82092
-0.80414
-0.76447
-0.7782
-0.80566
-0.75836
-0.71106
-0.71106
-0.72937
-0.69733
-0.63324
-0.67139
-0.61035
-0.58136
-0.54169
-0.54321
-0.50812
-0.45471
-0.42725
-0.3891
-0.39673
-0.35248
-0.30975
-0.30212
-0.32959
-0.30975
-0.28992
-0.32654
-0.37231
-0.41656
-0.44861
-0.52338
-0.59509
-0.6485
-0.7019
-0.74768
-0.80261
-0.84076
-0.81329
-0.8667
-0.89722
-0.89111
-0.88806
-0.88196
-0.89569
-0.87738
-0.85144
-0.86823
-0.87891
-0.87891
-0.84381
-0.83923
-0.86975
-0.85907
-0.82245
-0.84076
-0.88806
-0.86212
-0.82397
-0.84229
-0.83923
-0.83923
-0.82855
-0.81329
-0.83008
-0.79956
-0.77362
-0.78735
-0.80414
-0.75378
-0.74158
-0.77515
-0.75989
-0.76294
-0.77362
-0.78735
-0.77972
-0.85907
-0.89111
-0.92926
-0.92163
-0.92468
-0.92773
-0.93994
-0.93384
-0.92926
-0.91248
-0.9491
-0.9491
-0.94299
-0.90942
-0.94757
-1.0529
-1.0696
-0.89874
-0.6073
-0.28992
0.18768
0.46234
0.6485
0.47607
-0.061035
-0.44403
-0.69427
-0.73242
-0.68512
-0.68512
-0.75989
-0.75684
-0.7782
-0.78278
-0.78735
-0.78125
-0.7782
-0.76294
-0.78278
-0.78278
-0.75531
-0.72937
-0.737
-0.73242
-0.73853
-0.6958
-0.66681
-0.69733
-0.65002
-0.59967
-0.61493
-0.6012
-0.56
-0.50354
-0.53711
-0.51575
-0.46234
-0.39368
-0.39978
-0.39368
-0.37689
-0.31738
-0.33875
-0.32196
-0.33112
-0.29297
-0.35248
-0.36163
-0.36469
-0.40436
-0.44556
-0.53406
-0.62866
-0.63629
-0.66528
-0.72174
-0.72784
-0.77667
-0.80719
-0.83618
-0.8194
-0.83313
-0.86823
-0.87433
-0.84229
-0.84534
-0.83923
-0.84076
-0.84229
-0.84381
-0.84534
-0.83466
-0.80261
-0.82245
-0.84381
-0.84076
-0.82245
-0.81177
-0.82245
-0.85144
-0.83618
-0.84686
-0.85907
-0.83313
-0.81024
-0.81482
-0.84076
-0.78735
-0.74768
-0.76447
-0.79498
-0.79041
-0.75073
-0.74921
-0.75989
-0.76904
-0.77667
-0.7843
-0.84229
-0.8606
-0.91553
-0.93231
-0.94757
-0.95367
-0.95978
-0.95367
-0.96283
-0.9552
-0.98419
-0.93079
-0.99335
-1.0071
-0.98572
-0.99487
-1.1597
-1.0803
-0.86212
-0.54626
-0.25177
0.19226
0.50659
0.64392
0.30975
-0.24109
-0.54169
-0.68512
-0.69733
-0.77057
-0.80719
-0.79193
-0.84534
-0.83923
-0.86517
-0.82855
-0.88806
-0.86517
-0.83923
-0.83923
-0.85144
-0.80719
-0.79041
-0.75836
-0.79041
-0.77057
-0.75073
-0.6958
-0.74921
-0.71716
-0.68359
-0.63477
-0.66223
-0.61646
-0.59357
-0.54779
-0.54626
-0.47913
-0.43945
-0.41199
-0.42572
-0.37842
-0.37231
-0.3418
-0.36926
-0.354
-0.32654
-0.37384
-0.45166
-0.45166
-0.46234
-0.51422
-0.61951
-0.6546
-0.71259
-0.77667
-0.83618
-0.83771
-0.85602
-0.88196
-0.9552
-0.93689
-0.90179
-0.89111
-0.93231
-0.92163
-0.88654
-0.90485
-0.93842
-0.93536
-0.88654
-0.9079
-0.94604
-0.91095
-0.88501
-0.90027
-0.9613
-0.92621
-0.89569
-0.91248
-0.97046
-0.92773
-0.90179
-0.89569
-0.93689
-0.93842
-0.914
-0.92621
-0.94452
-0.914
-0.8667
-0.85449
-0.88196
-0.85297
-0.84534
-0.85449
-0.86365
-0.83923
-0.77972
-0.81329
-0.86365
-0.86823
-0.83618
-0.90027
-0.96436
-0.99182
-0.95673
-0.99335
-1.0132
-1.0239
-0.97961
-1.0056
-1.0056
-1.0056
-0.9491
-1.0162
-1.0254
-1.0406
-1.03
-1.1581
-1.0635
-0.83771
-0.46539
-0.097656
0.20599
0.54932
0.62714
0.23499
-0.37537
-0.6012
-0.66986
-0.70801
-0.79803
-0.83618
-0.80414
-0.83618
-0.87128
-0.8728
-0.84076
-0.89874
-0.86517
-0.83923
-0.78125
-0.83771
-0.83313
-0.81024
-0.74463
-0.78125
-0.78278
-0.76752
-0.68665
-0.7019
-0.70801
-0.67902
-0.61646
-0.64087
-0.62256
-0.58441
-0.5188
-0.53558
-0.50354
-0.46539
-0.37994
-0.39368
-0.42725
-0.383
-0.32349
-0.34943
-0.38605
-0.37079
-0.35858
-0.40588
-0.45776
-0.50659
-0.50659
-0.57983
-0.6897
-0.7309
-0.72479
-0.80566
-0.87891
-0.90027
-0.85144
-0.89874
-0.91095
-0.914
-0.87128
-0.93231
-0.96436
-0.93079
-0.89569
-0.92926
-0.94604
-0.90637
-0.89874
-0.92468
-0.94147
-0.92926
-0.89264
-0.91858
-0.95825
-0.93079
-0.89874
-0.91705
-0.9552
-0.94452
-0.92621
-0.9552
-0.99182
-0.96588
-0.93384
-0.93842
-0.99335
-0.97504
-0.94147
-0.95978
-1.0025
-0.96436
-0.93536
-0.91858
-0.93994
-0.91858
-0.8728
-0.89569
-0.91248
-0.87433
-0.86365
-0.84534
-0.88196
-0.86212
-0.8728
-0.88348
-0.98419
-0.99945
-0.9964
-0.98877
-1.0605
-1.0101
-1.0239
-0.99945
-1.0956
-1.0452
-1.0345
-1.0147
-1.1002
-1.0437
-1.0376
-1.0788
-1.2466
-1.1124
-0.88043
-0.59204
-0.25177
0.16174
0.4715
0.50812
0.19226
-0.37079
-0.56915
-0.6897
-0.77972
-0.81787
-0.87433
-0.8667
-0.9079
-0.88348
-0.90027
-0.88348
-0.94452
-0.90179
-0.88196
-0.85297
-0.92773
-0.88043
-0.84076
-0.81177
-0.86517
-0.80414
-0.78125
-0.74615
-0.80719
-0.75226
-0.7309
-0.68359
-0.72327
-0.66681
-0.64697
-0.58136
-0.60272
-0.54626
-0.5188
-0.4776
-0.50812
-0.45471
-0.43335
-0.39673
-0.44861
-0.4364
-0.41351
-0.41046
-0.4715
-0.49591
-0.50354
-0.56
-0.66528
-0.71564
-0.75836
-0.78583
-0.86975
-0.89569
-0.90485
-0.93231
-0.98572
-0.96588
-0.95825
-0.9613
-0.98724
-0.96588
-0.94147
-0.93689
-0.98724
-0.96893
-0.92773
-0.94604
-0.98724
-0.99487
-0.9079
-0.92316
-0.98267
-1.0208
-0.94604
-0.97656
-0.98877
-1.0239
-0.92773
-0.95825
-1.0025
-1.0254
-0.9491
-0.95978
-0.98419
-1.0437
-0.95825
-0.96893
-1.001
-1.0498
-0.97504
-0.99487
-1.0132
-1.0712
-0.98572
-0.99792
-1.0193
-1.0895
-0.99487
-0.99487
-0.97504
-0.9964
-0.93231
-0.92621
-0.93079
-0.99487
-0.85907
-0.87128
-0.91858
-0.92316
-0.84991
-0.85297
-0.92316
-0.97198
-0.94452
-0.97656
-1.0544
-1.0818
-0.99335
-0.97504
-1.0437
-1.1063
-0.99487
-0.99945
-1.0498
-1.0696
-0.9964
-0.97809
-1.0681
-1.2436
-1.1063
-0.914
-0.66681
-0.34943
0.11139
0.44556
0.49591
0.23193
-0.22278
-0.44556
-0.72174
-0.75836
-0.73395
-0.78888
-0.85907
-0.90942
-0.83466
-0.83466
-0.88654
-0.92773
-0.84076
-0.80261
-0.8667
-0.90485
-0.8194
-0.7843
-0.84229
-0.84229
-0.75684
-0.74005
-0.79498
-0.80414
-0.69885
-0.69427
-0.72937
-0.71259
-0.61798
-0.59052
-0.6485
-0.64697
-0.53558
-0.46997
-0.52795
-0.50812
-0.4425
-0.36316
-0.45013
-0.44403
-0.37384
-0.37537
-0.44403
-0.46387
-0.41351
-0.43793
-0.55847
-0.65613
-0.62714
-0.66528
-0.78125
-0.83008
-0.81177
-0.85449
-0.92316
-0.9613
-0.89111
-0.91858
-0.97351
-0.98572
-0.91553
-0.88806
-0.95825
-0.97809
-0.91553
-0.8667
-0.95215
-0.96741
-0.87891
-0.90179
-0.9552
-0.96283
-0.88654
-0.90485
-0.97656
-0.95825
-0.89569
-0.90637
-0.97351
-0.9552
-0.92163
-0.90485
-0.97656
-0.99487
-0.88654
-0.89874
-0.96893
-0.97504
-0.92316
-0.93994
-0.99487
-0.98877
-0.92468
-0.91095
-0.96588
-0.95825
-0.88196
-0.89417
-0.9079
-0.93536
-0.8667
-0.83923
-0.87891
-0.89417
-0.77667
-0.80719
-0.8606
-0.88043
-0.85144
-0.91095
-0.95825
-0.9964
-0.97046
-0.97198
-1.0071
-1.0178
-0.9552
-0.98877
-1.0162
-1.0315
-0.96436
-0.96436
-1.0071
-1.0452
-1.0864
-1.0681
-0.91858
-0.62408
-0.20447
0.19379
0.41046
0.51422
0.28229
-0.36163
-0.61798
-0.78888
-0.70038
-0.72174
-0.79803
-0.8316
-0.76447
-0.78888
-0.8255
-0.83008
-0.78125
-0.79346
-0.82245
-0.80109
-0.74005
-0.7431
-0.7782
-0.74158
-0.71106
-0.73242
-0.70343
-0.6897
-0.65002
-0.67749
-0.65613
-0.63019
-0.56305
-0.58746
-0.56305
-0.54474
-0.47302
-0.46234
-0.45013
-0.42114
-0.35858
-0.3479
-0.35095
-0.35095
-0.29602
-0.29602
-0.36163
-0.36469
-0.31891
-0.34332
-0.41962
-0.49744
-0.48828
-0.54474
-0.65613
-0.7019
-0.71106
-0.72174
-0.82092
-0.84229
-0.80109
-0.79498
-0.88196
-0.88654
-0.83313
-0.82397
-0.84534
-0.85602
-0.82245
-0.80414
-0.84534
-0.84229
-0.78888
-0.80261
-0.83466
-0.82245
-0.7782
-0.78583
-0.80566
-0.80414
-0.79956
-0.80566
-0.86517
-0.80261
-0.80872
-0.80566
-0.84686
-0.82092
-0.80261
-0.81177
-0.87433
-0.83313
-0.80872
-0.8194
-0.84686
-0.79041
-0.80109
-0.78583
-0.80719
-0.75378
-0.76447
-0.73242
-0.77667
-0.72784
-0.69733
-0.74768
-0.78125
-0.7431
-0.76904
-0.81482
-0.86517
-0.89111
-0.87738
-0.87585
-0.89874
-0.88806
-0.89417
-0.88654
-0.92163
-0.91858
-0.92316
-0.90637
-0.92163
-0.95367
-1.0651
-0.97656
-0.76447
-0.46844
-0.071716
0.29907
0.55389
0.61646
0.32196
-0.32349
-0.53253
-0.68817
-0.62561
-0.67291
-0.75836
-0.74463
-0.75531
-0.7782
-0.78583
-0.78125
-0.74463
-0.76752
-0.77362
-0.7782
-0.74921
-0.74615
-0.75073
-0.74158
-0.6958
-0.68054
-0.66986
-0.66376
-0.63934
-0.62714
-0.60272
-0.6012
-0.53711
-0.5249
-0.51117
-0.49438
-0.42725
-0.41504
-0.37231
-0.3418
-0.31128
-0.30365
-0.27924
-0.28534
-0.25177
-0.26703
-0.27924
-0.28992
-0.30365
-0.35095
-0.39063
-0.45624
-0.48981
-0.58136
-0.63934
-0.6897
-0.71411
-0.78278
-0.81635
-0.81482
-0.8316
-0.86212
-0.86517
-0.87738
-0.84381
-0.89417
-0.8728
-0.8667
-0.84076
-0.88501
-0.86517
-0.86823
-0.8194
-0.87128
-0.84991
-0.8606
-0.84076
-0.87891
-0.8606
-0.88348
-0.81482
-0.85297
-0.84534
-0.88806
-0.86823
-0.87585
-0.87128
-0.88806
-0.85907
-0.89722
-0.91248
-0.9079
-0.8667
-0.91095
-0.91705
-0.90179
-0.87585
-0.90027
-0.87433
-0.8728
-0.84839
-0.84991
-0.80719
-0.8316
-0.78125
-0.81329
-0.81177
-0.80414
-0.76447
-0.81787
-0.79346
-0.81635
-0.86823
-0.92468
-0.914
-0.93384
-0.90179
-0.96741
-0.97504
-0.95367
-0.95673
-0.96588
-0.96741
-0.9491
-0.96283
-0.97351
-0.98877
-1.0452
-1.088
-0.95215
-0.6897
-0.42114
0.085449
0.31738
0.61951
0.57831
0.20599
-0.31891
-0.56
-0.65308
-0.65918
-0.75378
-0.77972
-0.75378
-0.77209
-0.79956
-0.8316
-0.82092
-0.79193
-0.80261
-0.7843
-0.77667
-0.77667
-0.75226
-0.74158
-0.71411
-0.70343
-0.72479
-0.70801
-0.66223
-0.63324
-0.62256
-0.60883
-0.57526
-0.57678
-0.55389
-0.51117
-0.45776
-0.45624
-0.44098
-0.39368
-0.34943
-0.31281
-0.31281
-0.28992
-0.23804
-0.2655
-0.29907
-0.32806
-0.29144
-0.32043
-0.35095
-0.40436
-0.42419
-0.52948
-0.57983
-0.65918
-0.65765
-0.74005
-0.79346
-0.84229
-0.8194
-0.83466
-0.84076
-0.87738
-0.8255
-0.84381
-0.8606
-0.86975
-0.82245
-0.84229
-0.84991
-0.8606
-0.82092
-0.83466
-0.8606
-0.83771
-0.79803
-0.83008
-0.83771
-0.84686
-0.78278
-0.82092
-0.84381
-0.86823
-0.83923
-0.8316
-0.85449
-0.85907
-0.83466
-0.85449
-0.89111
-0.88806
-0.84839
-0.85602
-0.87738
-0.89264
-0.84839
-0.85907
-0.89569
-0.88654
-0.84381
-0.86517
-0.92926
-0.92926
-0.86212
-0.85907
-0.93689
-0.90637
-0.87891
-0.8667
-0.88501
-0.8667
-0.80872
-0.8194
-0.79956
-0.79956
-0.76904
-0.77515
-0.82245
-0.79498
-0.75684
-0.77515
-0.80261
-0.78583
-0.80109
-0.85907
-0.93536
-0.88043
-0.87585
-0.90332
-0.97198
-0.94299
-0.90637
-0.92773
-0.96283
-0.94604
-0.89874
-0.91248
-0.97961
-1.0193
-1.0696
-0.92468
-0.71411
-0.41199
0.067139
0.34027
0.57373
0.57068
0.18158
-0.39215
-0.65613
-0.72174
-0.66833
-0.70343
-0.81024
-0.77667
-0.77515
-0.78735
-0.85144
-0.79803
-0.76294
-0.77667
-0.80261
-0.7782
-0.76141
-0.76447
-0.78278
-0.73242
-0.6897
-0.68817
-0.76752
-0.69122
-0.67139
-0.65002
-0.68512
-0.60272
-0.5661
-0.54626
-0.57983
-0.51727
-0.4715
-0.45166
-0.45166
-0.3891
-0.354
-0.32043
-0.36316
-0.30365
-0.27771
-0.29144
-0.33264
-0.32043
-0.32349
-0.34027
-0.43793
-0.44861
-0.47607
-0.59357
-0.6897
-0.7019
-0.7019
-0.75073
-0.83466
-0.84229
-0.82855
-0.86517
-0.89874
-0.89111
-0.85144
-0.84686
-0.91095
-0.87128
-0.83008
-0.85907
-0.9079
-0.87738
-0.84534
-0.83771
-0.88043
-0.84839
-0.8316
-0.84839
-0.89417
-0.8728
-0.83923
-0.8606
-0.88348
-0.8728
-0.83466
-0.84076
-0.87433
-0.88043
-0.83923
-0.85907
-0.88654
-0.89874
-0.84381
-0.87738
-0.89722
-0.8728
-0.81329
-0.83466
-0.86517
-0.8255
-0.76294
-0.80109
-0.80872
-0.79193
-0.74005
-0.75531
-0.80414
-0.80719
-0.74463
-0.83313
-0.90485
-0.91553
-0.86823
-0.92316
-0.9491
-0.94604
-0.89111
-0.92773
-0.9613
-0.97504
-0.89722
-0.92621
-0.94757
-0.95673
-0.94452
-1.0742
-1.0086
-0.7782
-0.41351
-0.050354
0.31128
0.54016
0.58289
0.20599
-0.45166
-0.66681
-0.74005
-0.70648
-0.79803
-0.81635
-0.74768
-0.80109
-0.82245
-0.82092
-0.76904
-0.8316
-0.84381
-0.81482
-0.72327
-0.77972
-0.78735
-0.79956
-0.72632
-0.72937
-0.74615
-0.7309
-0.66223
-0.68817
-0.7019
-0.67139
-0.59204
-0.6012
-0.61188
-0.58899
-0.48676
-0.50049
-0.4776
-0.4364
-0.36163
-0.38147
-0.36469
-0.34943
-0.30823
-0.33569
-0.33112
-0.32196
-0.29755
-0.36926
-0.42725
-0.46539
-0.48065
-0.58594
-0.68665
-0.70343
-0.70953
-0.80414
-0.85602
-0.87585
-0.87585
-0.90485
-0.93384
-0.93079
-0.9079
-0.9491
-0.9613
-0.93231
-0.91705
-0.96283
-0.97809
-0.94604
-0.90179
-0.94604
-0.96436
-0.93842
-0.90637
-0.92316
-0.97198
-0.9491
-0.92926
-0.91705
-0.98877
-0.96436
-0.94757
-0.95215
-1.0056
-0.97656
-0.96283
-0.98267
-1.0284
-0.99487
-0.96283
-0.97351
-1.0651
-1.0132
-0.97504
-0.96436
-0.99182
-0.96741
-0.9552
-0.92316
-0.96893
-0.90942
-0.9079
-0.91705
-0.93689
-0.90179
-0.92773
-0.93536
-0.95673
-0.99945
-1.004
-1.0178
-1.0986
-1.088
-1.0895
-1.0712
-1.1154
-1.088
-1.0803
-1.0788
-1.1368
-1.1093
-1.0925
-1.0696
-1.239
-1.2527
-1.0605
-0.75378
-0.52948
-0.022888
0.26398
0.57068
0.36316
-0.12817
-0.57831
-0.79956
-0.89722
-0.84686
-0.90179
-0.91248
-0.97656
-0.94757
-0.9613
-0.95367
-1.0254
-0.96741
-0.94452
-0.89874
-0.97961
-0.94757
-0.93994
-0.90332
-0.93842
-0.9079
-0.87738
-0.83466
-0.88043
-0.83771
-0.80414
-0.78735
-0.80719
-0.74615
-0.72021
-0.66376
-0.67596
-0.63934
-0.62561
-0.57373
-0.57373
-0.50354
-0.46539
-0.43945
-0.49286
-0.45929
-0.45776
-0.43945
-0.51727
-0.51727
-0.54169
-0.59204
-0.71259
-0.74463
-0.7431
-0.81329
-0.93842
-0.97504
-0.9491
-0.99792
-1.0483
-1.0895
-1.0223
-1.0208
-1.091
-1.1154
-1.0406
-1.0376
-1.0864
-1.1139
-1.0132
-1.03
-1.0696
-1.0574
-1.0223
-1.0406
-1.0773
-1.1017
-1.0315
-1.0315
-1.0498
-1.1078
-1.0361
-1.0345
-1.0513
-1.1047
-1.0361
-1.0696
-1.0941
-1.152
-1.0666
-1.0681
-1.0773
-1.1566
-1.059
-1.0635
-1.0941
-1.1459
-1.0742
-1.0971
-1.0773
-1.0895
-0.99182
-1.03
-1.0254
-1.0818
-0.97504
-0.97198
-1.0071
-1.0406
-0.93994
-0.95367
-1.0269
-1.0742
-1.0345
-1.0696
-1.1368
-1.1841
-1.1124
-1.1017
-1.1612
-1.2131
-1.1185
-1.1185
-1.152
-1.2009
-1.1185
-1.1185
-1.1826
-1.3199
-1.2772
-1.1063
-0.88806
-0.63782
-0.07019
0.21973
0.45013
0.29449
-0.054932
-0.55695
-0.81635
-0.9613
-0.85602
-0.91095
-0.99487
-1.0452
-0.98877
-0.99487
-1.0452
-1.0696
-0.98877
-0.99335
-1.0254
-1.0529
-0.96588
-0.9491
-0.97504
-1.0254
-0.95978
-0.90332
-0.93384
-0.95978
-0.87128
-0.83923
-0.8728
-0.88806
-0.77972
-0.73395
-0.79498
-0.79956
-0.67749
-0.60425
-0.66681
-0.65765
-0.55542
-0.5127
-0.55542
-0.56915
-0.48828
-0.4776
-0.55084
-0.5661
-0.54016
-0.56152
-0.69122
-0.76294
-0.73395
-0.79193
-0.93842
-0.99182
-0.96741
-0.97504
-1.0956
-1.1414
-1.0681
-1.0666
-1.1292
-1.1505
-1.0956
-1.0513
-1.1246
-1.1536
-1.0788
-1.0254
-1.1215
-1.1368
-1.0681
-1.033
-1.1185
-1.1459
-1.0864
-1.0529
-1.1398
-1.1459
-1.0757
-1.0559
-1.1414
-1.1429
-1.088
-1.0651
-1.1612
-1.1688
-1.1154
-1.0986
-1.1673
-1.1597
-1.12
-1.0941
-1.1673
-1.1826
-1.1292
-1.1154
-1.1658
-1.1902
-1.088
-1.0712
-1.0956
-1.1078
-1.0345
-1.059
-1.0803
-1.0773
-1.0147
-1.03
-1.0437
-1.0864
-1.0132
-1.03
-1.1017
-1.1475
-1.0925
-1.123
-1.1932
-1.1993
-1.1215
-1.1597
-1.1856
-1.2024
-1.1292
-1.149
-1.1688
-1.1734
-1.1353
-1.2207
-1.3412
-1.2222
-0.89264
-0.6073
-0.23499
0.080872
0.44556
0.36011
-0.059509
-0.6958
-0.86517
-0.97198
-0.96588
-0.97656
-0.94147
-0.97656
-1.0071
-1.0147
-0.9552
-0.96588
-1.0056
-1.0147
-0.93079
-0.94452
-0.96588
-0.96588
-0.90942
-0.90332
-0.92468
-0.90942
-0.85297
-0.83923
-0.8667
-0.83618
-0.78735
-0.78735
-0.78735
-0.75836
-0.66833
-0.66223
-0.67902
-0.61188
-0.54474
-0.5188
-0.52948
-0.50354
-0.44708
-0.41809
-0.47455
-0.47455
-0.42725
-0.46539
-0.50354
-0.51575
-0.55695
-0.60577
-0.69275
-0.7782
-0.78125
-0.84076
-0.91095
-0.94452
-0.92773
-0.95978
-0.99182
-1.03
-1.0025
-1.0025
-1.0574
-1.0452
-0.99792
-0.98877
-1.0345
-1.0361
-0.98419
-0.99792
-1.0284
-1.0086
-0.96283
-0.99182
-1.0025
-0.95673
-0.93994
-1.0025
-1.03
-0.98572
-0.95978
-0.97504
-1.0147
-0.97809
-0.97809
-0.99945
-1.0284
-1.0178
-1.0025
-1.0025
-1.0452
-1.0056
-0.99945
-1.0101
-1.0178
-0.98267
-0.92163
-0.93842
-0.97198
-0.95673
-0.88043
-0.88501
-0.95367
-0.89111
-0.85144
-0.86823
-0.94452
-0.96436
-0.97809
-0.98267
-1.0544
-1.0742
-1.0391
-1.0468
-1.088
-1.0788
-1.033
-1.0361
-1.0849
-1.0849
-1.059
-1.0559
-1.1215
-1.207
-1.1932
-0.98572
-0.71106
-0.42267
0.1297
0.37994
0.56458
0.32043
-0.23346
-0.57373
-0.8194
-0.84076
-0.7843
-0.8606
-0.914
-0.90179
-0.90179
-0.92773
-0.93994
-0.92926
-0.90332
-0.91705
-0.91553
-0.90179
-0.85602
-0.87433
-0.89569
-0.87585
-0.83771
-0.83008
-0.82245
-0.81024
-0.79498
-0.77515
-0.74921
-0.7019
-0.65918
-0.67596
-0.65308
-0.62103
-0.55084
-0.56152
-0.51422
-0.48828
-0.4303
-0.43488
-0.4425
-0.41809
-0.38757
-0.42267
-0.41504
-0.44861
-0.4364
-0.5188
-0.60425
-0.6424
-0.65308
-0.75684
-0.84534
-0.85907
-0.87128
-0.9079
-0.97656
-0.96436
-0.95825
-0.98724
-0.98877
-0.99945
-0.96283
-0.99792
-1.0132
-0.99182
-0.95825
-0.96588
-0.99945
-0.97504
-0.95673
-0.96436
-0.97351
-0.9964
-0.9552
-0.98267
-0.99182
-0.97351
-0.9613
-0.98877
-0.9964
-0.98419
-0.96893
-0.98419
-1.001
-1.004
-0.98724
-1.0193
-1.0178
-1.0071
-1.0056
-1.0101
-1.0071
-1.0208
-0.99945
-1.0162
-1.0208
-1.0208
-1.0025
-1.0345
-1.0208
-0.99182
-0.94604
-0.94604
-0.98572
-0.9552
-0.92163
-0.93384
-0.91858
-0.93536
-0.91858
-0.89874
-0.92316
-0.94147
-0.92621
-0.96741
-1.0452
-1.0498
-1.0406
-1.0635
-1.088
-1.0864
-1.0712
-1.1002
-1.0818
-1.0666
-1.091
-1.0956
-1.0971
-1.0895
-1.1597
-1.2482
-1.0971
-0.8606
-0.56
-0.14648
0.13885
0.48828
0.4837
0.1358
-0.45319
-0.69122
-0.79193
-0.79346
-0.87433
-0.91858
-0.89722
-0.94299
-0.96436
-0.90637
-0.914
-0.94757
-0.93689
-0.92773
-0.88806
-0.90027
-0.89569
-0.89569
-0.86975
-0.87433
-0.84991
-0.81024
-0.81024
-0.80872
-0.79041
-0.74615
-0.72632
-0.72327
-0.70648
-0.65002
-0.61493
-0.58136
-0.57373
-0.5249
-0.48676
-0.45471
-0.45624
-0.41504
-0.39673
-0.40894
-0.41962
-0.3952
-0.40436
-0.4425
-0.47913
-0.48981
-0.54321
-0.62103
-0.71106
-0.78125
-0.80414
-0.84686
-0.91553
-0.94757
-0.94757
-0.97351
-0.99487
-0.98724
-0.98572
-0.97809
-1.004
-1.0071
-1.0086
-1.0086
-1.0208
-0.9903
-0.96741
-0.99335
-0.98877
-0.98267
-0.97351
-0.97046
-0.99487
-0.98877
-0.98572
-0.98419
-0.98724
-0.97656
-0.98419
-1.004
-1.0178
-1.0071
-0.99792
-1.0223
-1.0193
-1.0208
-1.0193
-1.0269
-1.033
-1.0025
-1.004
-1.0452
-1.0101
-1.0391
-1.0208
-1.0269
-1.0086
-1.0483
-1.0269
-1.059
-1.059
-1.0635
-1.0361
-1.059
-1.0361
-1.0361
-0.98572
-1.0239
-0.99487
-0.98267
-0.97198
-0.97656
-0.96893
-0.97961
-0.92773
-0.96283
-0.96588
-0.97809
-0.96436
-1.0696
-1.0925
-1.1093
-1.0818
-1.1124
-1.1078
-1.1398
-1.1063
-1.1108
-1.1246
-1.1154
-1.0895
-1.1261
-1.1215
-1.1383
-1.2436
-1.2268
-1.0101
-0.72174
-0.35858
0.013733
0.32501
0.47607
0.28076
-0.34485
-0.57831
-0.75684
-0.75989
-0.8606
-0.92316
-0.89111
-0.914
-0.9552
-0.9552
-0.92316
-0.914
-0.94757
-0.93842
-0.90332
-0.89874
-0.914
-0.90637
-0.85297
-0.83923
-0.86365
-0.85144
-0.79346
-0.79193
-0.77362
-0.77362
-0.74005
-0.72174
-0.70038
-0.68665
-0.61035
-0.59509
-0.58136
-0.55542
-0.50201
-0.46692
-0.44403
-0.46387
-0.39368
-0.40894
-0.41962
-0.43488
-0.37689
-0.39368
-0.45013
-0.48981
-0.51575
-0.60577
-0.65308
-0.71259
-0.7309
-0.80261
-0.87585
-0.92621
-0.89264
-0.93384
-0.98267
-0.9964
-0.93231
-0.9613
-0.9903
-0.98572
-0.94604
-0.96436
-0.97961
-0.97351
-0.93842
-0.93842
-0.97809
-0.97351
-0.94299
-0.96283
-0.9552
-0.9491
-0.91095
-0.94452
-0.98724
-0.96741
-0.92468
-0.9903
-0.98419
-0.97656
-0.94604
-0.96893
-0.97198
-0.99945
-0.9613
-1.001
-1.004
-0.97809
-0.96283
-0.98419
-0.99792
-1.0132
-0.98877
-0.9964
-1.0101
-0.99792
-0.96893
-0.93384
-0.95825
-0.94757
-0.90332
-0.91248
-0.94452
-0.90179
-0.87433
-0.86212
-0.92926
-0.90637
-0.90027
-0.91248
-1.0101
-0.97961
-0.99792
-1.0315
-1.1078
-1.0498
-1.0239
-1.0559
-1.1063
-1.0757
-1.0757
-1.0498
-1.0773
-1.0742
-1.062
-1.1826
-1.2634
-1.0605
-0.737
-0.43182
-0.054932
0.26855
0.51575
0.3891
-0.19989
-0.5722
-0.82245
-0.88196
-0.85907
-0.84381
-0.87585
-0.91248
-0.95215
-0.91248
-0.93079
-0.92773
-0.95978
-0.89569
-0.9079
-0.91248
-0.93384
-0.88501
-0.84686
-0.83618
-0.87585
-0.83923
-0.84076
-0.79498
-0.80566
-0.76141
-0.7309
-0.71716
-0.737
-0.66528
-0.63171
-0.61493
-0.6485
-0.58746
-0.52948
-0.47302
-0.48218
-0.45929
-0.41809
-0.42267
-0.46539
-0.43335
-0.40131
-0.43335
-0.51117
-0.51575
-0.52948
-0.58899
-0.68512
-0.74615
-0.77515
-0.82397
-0.89722
-0.93384
-0.93536
-0.97961
-1.0178
-0.98724
-0.96283
-0.98877
-1.03
-1.004
-0.94757
-0.98267
-0.9964
-0.99945
-0.97351
-0.99182
-0.9903
-0.98419
-0.93994
-0.93689
-0.96893
-0.96741
-0.91705
-0.97961
-0.98877
-0.97046
-0.91553
-0.95215
-0.9552
-0.99182
-0.92773
-0.95367
-0.99182
-0.98267
-0.91858
-0.98267
-1.001
-0.9613
-0.89111
-0.914
-0.93536
-0.91858
-0.82855
-0.89874
-0.89111
-0.89264
-0.82855
-0.84229
-0.86823
-0.89874
-0.84381
-0.89417
-0.96893
-1.0071
-0.95367
-1.0345
-1.0483
-1.0406
-0.97046
-1.0132
-1.0468
-1.0239
-0.97198
-1.0132
-1.0361
-1.0162
-0.97504
-1.1459
-1.1795
-1.0193
-0.62408
-0.37689
0.071716
0.32959
0.63019
0.42114
-0.13733
-0.51575
-0.6897
-0.77209
-0.7843
-0.84991
-0.8194
-0.84076
-0.8667
-0.87891
-0.84229
-0.90027
-0.89874
-0.85449
-0.83466
-0.86823
-0.86975
-0.85602
-0.79803
-0.81024
-0.80261
-0.8255
-0.75531
-0.74005
-0.75226
-0.72479
-0.67596
-0.66681
-0.67902
-0.65155
-0.59814
-0.58441
-0.57373
-0.5249
-0.45319
-0.44098
-0.4425
-0.38452
-0.34485
-0.37689
-0.42267
-0.39215
-0.36926
-0.3891
-0.45319
-0.49438
-0.53711
-0.61493
-0.71411
-0.737
-0.77362
-0.8194
-0.93994
-0.92926
-0.94147
-0.95978
-1.0315
-0.97198
-0.96893
-0.9964
-1.059
-1.0376
-1.0101
-1.001
-1.0941
-1.0162
-0.98267
-0.99487
-1.0635
-0.9903
-0.9964
-0.98877
-1.0559
-1.0056
-0.98724
-1.001
-1.0544
-0.9903
-1.0071
-1.0025
-1.0712
-1.0437
-1.0269
-1.033
-1.1047
-1.0239
-1.0376
-1.059
-1.0803
-1.0361
-1.0437
-1.0559
-1.1078
-1.0406
-1.0178
-1.0239
-1.0483
-0.96893
-0.96436
-0.96436
-1.0162
-0.9964
-0.95367
-0.94757
-1.0284
-0.9964
-0.97198
-1.0361
-1.1246
-1.1154
-1.1078
-1.12
-1.1505
-1.1215
-1.1154
-1.1368
-1.1902
-1.1566
-1.1215
-1.1429
-1.1719
-1.1581
-1.2161
-1.3
-1.1826
-0.91553
-0.61493
-0.16327
0.094604
0.4425
0.43182
0.053406
-0.50049
-0.69427
-0.80109
-0.84534
-0.95825
-0.96436
-0.91248
-0.96436
-1.001
-1.0056
-0.97198
-0.97351
-0.9903
-0.97351
-0.91858
-0.9491
-0.96436
-0.95367
-0.87738
-0.9079
-0.91553
-0.88348
-0.84839
-0.85907
-0.8316
-0.83008
-0.75836
-0.76294
-0.74921
-0.72021
-0.62714
-0.63782
-0.62561
-0.57068
-0.51422
-0.49591
-0.49744
-0.46997
-0.40894
-0.3952
-0.4715
-0.44403
-0.39673
-0.43945
-0.55084
-0.58136
-0.61035
-0.6897
-0.77362
-0.84534
-0.85144
-0.91858
-0.98724
-1.0284
-0.97198
-1.0147
-1.0513
-1.0696
-1.0254
-1.0468
-1.0818
-1.0925
-1.0345
-1.0193
-1.0254
-1.0544
-1.0178
-1.0178
-1.0544
-1.062
-1.0208
-1.0269
-1.0529
-1.0635
-1.0178
-1.0361
-1.0559
-1.0376
-1.0529
-1.0498
-1.0834
-1.0788
-1.0452
-1.0483
-1.0635
-1.0925
-1.059
-1.0498
-1.0757
-1.062
-0.9964
-1.0086
-1.033
-1.0574
-0.99182
-0.97961
-1.0132
-0.98724
-0.96588
-0.99487
-1.0376
-1.0406
-1.0666
-1.0742
-1.1673
-1.1627
-1.149
-1.1246
-1.181
-1.1444
-1.1536
-1.1398
-1.1963
-1.1658
-1.123
-1.1261
-1.2131
-1.2833
-1.2741
-1.1185
-0.89722
-0.55847
-0.10681
0.19989
0.36011
0.2533
-0.24872
-0.73242
-0.98267
-0.99182
-0.91705
-0.94299
-1.0391
-1.004
-1.0086
-0.97809
-1.0345
-0.99945
-1.0162
-0.98877
-1.0361
-0.98267
-0.95215
-0.94147
-0.98877
-0.96283
-0.9552
-0.92621
-0.92316
-0.90179
-0.85907
-0.84686
-0.88806
-0.83313
-0.78888
-0.75226
-0.75684
-0.68665
-0.65765
-0.65613
-0.65308
-0.57678
-0.52948
-0.50659
-0.54169
-0.46692
-0.46539
-0.47455
-0.51117
-0.49591
-0.54169
-0.59052
-0.66376
-0.68665
-0.75684
-0.82855
-0.92773
-0.92926
-0.95367
-1.001
-1.0712
-1.0513
-1.0376
-1.0666
-1.091
-1.0849
-1.0681
-1.0757
-1.1124
-1.0941
-1.0483
-1.0361
-1.0818
-1.0803
-1.0376
-1.03
-1.059
-1.1139
-1.0361
-1.0193
-1.0574
-1.0818
-1.033
-1.0376
-1.0666
-1.0834
-1.0345
-1.0361
-1.0574
-1.0818
-1.0132
-1.0193
-1.0208
-1.0437
-0.9613
-0.98724
-0.98724
-1.0208
-0.95673
-0.92621
-0.95978
-1.0239
-0.9613
-0.95367
-1.0376
-1.1307
-1.059
-1.0864
-1.1383
-1.181
-1.0986
-1.1063
-1.1185
-1.1673
-1.0864
-1.1093
-1.1139
-1.1719
-1.0651
-1.1963
-1.2604
-1.1566
-0.80872
-0.49286
-0.085449
0.15717
0.49896
0.34027
-0.17853
-0.77209
-0.85449
-0.92163
-0.8667
-0.96588
-0.914
-0.9079
-0.95215
-1.0284
-0.92468
-0.914
-0.96283
-1.0223
-0.90637
-0.88043
-0.93689
-0.97046
-0.85907
-0.82397
-0.89111
-0.93689
-0.83618
-0.80872
-0.83008
-0.84839
-0.75684
-0.71106
-0.75684
-0.75684
-0.63019
-0.59509
-0.62714
-0.63324
-0.53101
-0.46234
-0.51575
-0.50354
-0.41199
-0.36621
-0.46844
-0.50354
-0.41199
-0.40436
-0.51117
-0.59204
-0.57678
-0.63934
-0.77362
-0.85907
-0.83313
-0.84686
-0.99182
-1.0162
-0.96588
-0.9491
-1.1017
-1.0818
-1.004
-0.98724
-1.088
-1.1108
-1.0315
-1.0025
-1.0605
-1.0773
-1.0345
-0.9964
-1.0742
-1.0681
-1.0193
-0.97809
-1.0513
-1.0803
-0.98877
-0.99182
-1.062
-1.0864
-1.03
-0.98572
-1.0757
-1.0818
-1.0086
-1.001
-1.0757
-1.0635
-0.95978
-0.93079
-1.0071
-1.0361
-0.94452
-0.91705
-0.99487
-1.0254
-0.91095
-0.91095
-1.0162
-1.0544
-1.0086
-1.0223
-1.1169
-1.1566
-1.0849
-1.0773
-1.1536
-1.1749
-1.1078
-1.088
-1.1597
-1.1734
-1.0925
-1.0956
-1.1551
-1.2436
-1.2527
-1.1536
-0.93994
-0.68359
-0.20447
0.17395
0.43335
0.39825
0.10376
-0.5661
-0.83313
-0.95215
-0.81024
-0.86212
-0.96588
-1.0178
-0.92926
-0.93384
-1.0101
-1.0361
-0.95825
-0.95367
-0.97961
-1.001
-0.88348
-0.89264
-0.93689
-0.94604
-0.84381
-0.87128
-0.88501
-0.87891
-0.78278
-0.77362
-0.80566
-0.79956
-0.69122
-0.67749
-0.69733
-0.66986
-0.56305
-0.54779
-0.57678
-0.52948
-0.43182
-0.41656
-0.45624
-0.46539
-0.36469
-0.36926
-0.4303
-0.47607
-0.4303
-0.48065
-0.59509
-0.66528
-0.6546
-0.72937
-0.82855
-0.90485
-0.89264
-0.92316
-0.99487
-1.0254
-0.9613
-0.97504
-1.03
-1.0239
-0.99182
-1.0056
-1.0483
-1.0239
-1.004
-0.99335
-1.0284
-1.0208
-0.95673
-0.97504
-1.033
-1.0284
-0.97351
-0.95978
-1.0147
-1.0071
-0.95825
-0.97046
-1.0406
-1.0239
-0.9552
-0.98267
-1.0361
-1.03
-0.99792
-0.97656
-1.0635
-1.0284
-1.0071
-1.0193
-1.0666
-1.0651
-1.0086
-1.0132
-1.0742
-1.0757
-1.0208
-1.0468
-1.0757
-1.0498
-0.98267
-0.94757
-1.0086
-0.99945
-0.94452
-0.93536
-0.95825
-0.97198
-0.93689
-0.92773
-0.95978
-0.96741
-0.93231
-0.93994
-1.0468
-1.088
-1.0529
-1.0712
-1.1383
-1.1429
-1.0925
-1.0925
-1.1292
-1.1475
-1.1063
-1.091
-1.1276
-1.1444
-1.0956
-1.1993
-1.2711
-1.0925
-0.77057
-0.48981
-0.065613
0.19379
0.59052
0.46997
-0.041199
-0.56763
-0.76447
-0.82397
-0.86823
-0.92468
-0.90942
-0.9079
-0.95367
-0.96436
-0.93842
-0.95673
-0.97504
-0.9552
-0.89569
-0.90332
-0.93384
-0.93994
-0.86823
-0.8606
-0.88043
-0.90485
-0.81787
-0.81177
-0.82855
-0.8255
-0.77057
-0.76294
-0.7309
-0.737
-0.65002
-0.63324
-0.62408
-0.61035
-0.51117
-0.4837
-0.4776
-0.47607
-0.42267
-0.4303
-0.41046
-0.41046
-0.36621
-0.39368
-0.43335
-0.50812
-0.5188
-0.61493
-0.66528
-0.75684
-0.78888
-0.86365
-0.92468
-0.95978
-0.95367
-1.0025
-1.0254
-1.0254
-1.001
-1.0437
-1.0101
-1.0223
-0.99335
-1.03
-1.0315
-0.99945
-0.99487
-1.0254
-1.0193
-0.99945
-0.99182
-1.0193
-1.0239
-0.9964
-1.0025
-1.0086
-1.0208
-0.99335
-0.99335
-0.99182
-1.03
-1.0254
-0.99792
-1.0193
-1.0269
-1.0315
-1.004
-1.0239
-1.0681
-1.0315
-0.9964
-1.0162
-1.0574
-1.0376
-1.001
-1.0284
-1.062
-1.0345
-1.0101
-1.0223
-1.0681
-1.0605
-1.03
-1.0025
-1.0513
-1.0605
-1.0269
-1.0193
-1.0742
-1.0651
-1.0269
-1.0147
-1.0498
-1.0223
-0.96741
-0.93994
-0.98724
-1.0056
-0.94147
-0.89569
-0.9613
-0.94147
-0.89264
-0.91095
-0.97504
-0.95978
-0.93842
-0.9903
-1.0818
-1.1063
-1.0483
-1.0529
-1.0925
-1.1124
-1.0773
-1.0498
-1.1093
-1.0864
-1.0406
-1.0513
-1.0956
-1.1765
-1.207
-1.0529
-0.84381
-0.54779
-0.083923
0.23651
0.50354
0.45319
0.088501
-0.48828
-0.737
-0.84686
-0.79193
-0.85907
-0.92926
-0.90332
-0.90485
-0.90637
-0.93536
-0.92773
-0.90179
-0.88043
-0.89417
-0.88654
-0.86212
-0.86365
-0.88806
-0.85144
-0.80261
-0.83466
-0.85297
-0.78278
-0.74158
-0.72937
-0.7431
-0.6958
-0.6546
-0.64087
-0.62866
-0.59509
-0.53253
-0.5127
-0.49744
-0.4715
-0.39368
-0.3891
-0.39063
-0.36316
-0.28839
-0.30212
-0.33112
-0.37384
-0.35706
-0.38452
-0.4364
-0.52795
-0.57373
-0.6424
-0.6958
-0.76752
-0.77667
-0.86975
-0.92621
-0.95673
-0.93536
-0.94757
-0.93842
-0.97198
-0.95673
-0.95673
-0.95673
-0.9552
-0.92316
-0.95825
-0.94604
-0.95978
-0.93536
-0.914
-0.93231
-0.92468
-0.90027
-0.914
-0.92926
-0.9613
-0.90942
-0.93536
-0.92773
-0.92926
-0.89722
-0.92773
-0.93079
-0.93079
-0.91095
-0.91705
-0.93842
-0.95367
-0.91858
-0.93079
-0.93689
-0.96283
-0.92468
-0.93231
-0.94757
-0.95367
-0.91553
-0.93689
-0.93536
-0.94452
-0.93689
-0.93689
-0.92468
-0.89417
-0.88654
-0.88196
-0.9079
-0.87128
-0.81635
-0.83313
-0.85449
-0.84229
-0.81482
-0.82855
-0.85449
-0.86823
-0.88196
-0.91705
-0.9491
-0.9491
-0.97809
-0.97504
-0.97656
-0.96283
-0.9552
-0.96283
-0.97809
-0.98877
-0.94757
-0.95825
-0.96588
-1.059
-1.0757
-0.95367
-0.67596
-0.32654
0.1297
0.383
0.56152
0.46539
-0.039673
-0.48981
-0.73853
-0.76294
-0.69275
-0.70953
-0.79041
-0.76447
-0.79193
-0.80566
-0.83771
-0.75226
-0.77209
-0.75989
-0.78125
-0.71106
-0.75684
-0.7431
-0.73395
-0.69733
-0.7019
-0.71716
-0.69427
-0.63477
-0.61646
-0.64545
-0.65002
-0.57373
-0.56458
-0.56152
-0.53406
-0.45776
-0.44098
-0.42725
-0.40741
-0.32959
-0.31281
-0.29755
-0.29144
-0.22125
-0.2533
-0.28076
-0.28534
-0.26245
-0.31586
-0.37689
-0.45166
-0.44708
-0.53253
-0.63629
-0.67749
-0.69885
-0.78583
-0.84381
-0.86517
-0.83923
-0.87585
-0.91705
-0.92468
-0.89722
-0.93079
-0.97198
-0.97504
-0.91095
-0.914
-0.93689
-0.94299
-0.89264
-0.90179
-0.94604
-0.96283
-0.89417
-0.89569
-0.93231
-0.92468
-0.92316
-0.93079
-0.94452
-0.91553
-0.91248
-0.93689
-0.9552
-0.94757
-0.93994
-0.94452
-0.97198
-0.95673
-0.95673
-0.94299
-0.96741
-0.97809
-0.97809
-0.96283
-0.97809
-0.97656
-0.9964
-0.97809
-0.98877
-1.0025
-1.0162
-1.0132
-1.0193
-0.9964
-1.0178
-0.97961
-1.0376
-1.001
-0.99335
-0.94147
-0.98419
-0.96588
-0.97809
-0.93231
-0.93689
-0.93689
-0.9613
-0.92773
-0.9613
-0.95367
-0.96283
-0.9552
-1.062
-1.0468
-1.0925
-1.0773
-1.0941
-1.0757
-1.1536
-1.1353
-1.1292
-1.0956
-1.1215
-1.0986
-1.1246
-1.1353
-1.1887
-1.2466
-1.1398
-0.8667
-0.5722
-0.10834
0.18921
0.48523
0.44403
0.09613
-0.59357
-0.80261
-0.914
-0.82245
-0.90027
-0.92621
-0.93231
-0.92163
-0.96436
-0.96436
-0.97351
-0.92926
-0.9964
-0.96893
-0.93842
-0.88806
-0.93536
-0.93231
-0.93536
-0.87128
-0.8728
-0.84991
-0.84381
-0.80719
-0.80872
-0.79193
-0.80872
-0.78735
-0.75073
-0.69885
-0.66528
-0.59967
-0.59204
-0.56763
-0.54169
-0.50049
-0.46692
-0.45013
-0.41351
-0.40894
-0.41046
-0.4425
-0.43335
-0.41656
-0.47455
-0.54321
-0.56915
-0.62561
-0.69427
-0.78125
-0.84534
-0.90637
-0.93994
-0.9903
-0.97809
-1.0162
-1.0208
-1.0635
-1.03
-1.0529
-1.0468
-1.0757
-1.0925
-1.088
-1.0391
-1.0452
-1.0178
-1.0345
-1.0376
-1.0681
-1.0513
-1.0178
-1.0269
-1.0849
-1.0376
-1.0208
-1.03
-1.0468
-1.0086
-1.0361
-1.0544
-1.0757
-1.0391
-1.03
-1.0666
-1.0834
-1.0788
-1.0681
-1.1124
-1.1093
-1.0757
-1.0666
-1.1215
-1.1246
-1.0956
-1.0895
-1.1093
-1.1246
-1.091
-1.088
-1.0986
-1.1276
-1.1017
-1.1093
-1.149
-1.1444
-1.0971
-1.1093
-1.0651
-1.0757
-1.0406
-1.0437
-1.0635
-1.0529
-0.99487
-1.0178
-1.0483
-1.0406
-1.0315
-1.03
-1.0925
-1.12
-1.1154
-1.1444
-1.178
-1.1932
-1.1856
-1.1841
-1.2283
-1.2375
-1.1826
-1.1902
-1.2146
-1.2329
-1.1749
-1.2299
-1.3351
-1.3321
-1.0986
-0.80109
-0.52643
-0.067139
0.20905
0.44556
0.18463
-0.38452
-0.72784
-0.96893
-1.0193
-0.9903
-1.0223
-1.0437
-1.0757
-1.0941
-1.1063
-1.0681
-1.1276
-1.0849
-1.0742
-1.091
-1.123
-1.059
-1.0483
-1.0178
-1.1093
-1.0605
-1.0315
-0.98724
-1.001
-0.95825
-0.94299
-0.93536
-0.95978
-0.89264
-0.85907
-0.8194
-0.82092
-0.7431
-0.71869
-0.69275
-0.71106
-0.63324
-0.59052
-0.55542
-0.59052
-0.54321
-0.56915
-0.57526
-0.61493
-0.6012
-0.63019
-0.67749
-0.7782
-0.84686
-0.9079
-0.93842
-1.0559
-1.0818
-1.1063
-1.1292
-1.1917
-1.1963
-1.2039
-1.2009
-1.2436
-1.2131
-1.1932
-1.181
-1.2268
-1.2054
-1.1887
-1.1841
-1.2207
-1.2085
-1.1795
-1.1566
-1.2238
-1.1932
-1.1703
-1.1749
-1.2207
-1.1993
-1.1719
-1.1902
-1.2314
-1.1978
-1.1887
-1.2039
-1.2405
-1.2177
-1.1719
-1.2146
-1.2527
-1.2405
-1.2161
-1.2268
-1.2543
-1.2222
-1.1841
-1.2146
-1.2772
-1.2405
-1.2039
-1.2283
-1.2512
-1.2177
-1.2177
-1.2482
-1.2329
-1.2222
-1.2039
-1.2604
-1.2421
-1.2024
-1.1429
-1.1612
-1.2024
-1.1688
-1.1368
-1.1414
-1.1261
-1.1459
-1.0849
-1.1581
-1.1673
-1.1322
-1.1215
-1.152
-1.2497
-1.2573
-1.2299
-1.2589
-1.2634
-1.2787
-1.2222
-1.2741
-1.2711
-1.2787
-1.2421
-1.2772
-1.3107
-1.3016
-1.355
-1.3428
-1.1673
-0.89264
-0.50354
-0.12207
0.13428
0.33722
0.15564
-0.51422
-0.88196
-1.062
-0.9903
-1.0162
-1.1002
-1.0941
-1.0376
-1.1093
-1.1414
-1.1414
-1.0757
-1.0986
-1.1124
-1.0956
-1.0391
-1.0483
-1.0849
-1.0559
-0.9964
-1.0208
-1.0452
-0.9903
-0.93994
-0.94299
-0.96588
-0.93689
-0.88348
-0.8667
-0.87585
-0.83618
-0.74768
-0.72632
-0.75684
-0.67902
-0.61646
-0.62714
-0.62866
-0.55695
-0.52032
-0.53253
-0.61035
-0.55389
-0.52643
-0.5722
-0.65613
-0.68359
-0.74005
-0.80872
-0.90179
-0.94147
-0.96741
-1.0391
-1.1185
-1.1093
-1.0956
-1.1429
-1.2024
-1.1917
-1.1429
-1.1612
-1.1902
-1.1703
-1.1673
-1.1765
-1.2039
-1.1688
-1.1429
-1.1383
-1.1627
-1.1581
-1.1383
-1.1383
-1.1871
-1.1459
-1.1154
-1.1185
-1.1734
-1.1536
-1.12
-1.149
-1.1963
-1.1688
-1.0971
-1.1093
-1.1795
-1.1765
-1.1261
-1.1475
-1.2085
-1.1826
-1.1307
-1.1322
-1.1826
-1.1429
-1.0834
-1.1093
-1.1246
-1.0986
-1.0559
-1.0361
-1.0681
-1.0635
-0.98267
-1.0513
-1.091
-1.0742
-1.0681
-1.12
-1.1826
-1.1856
-1.1276
-1.1566
-1.2024
-1.1932
-1.152
-1.1917
-1.2161
-1.1963
-1.1612
-1.1917
-1.21
-1.2589
-1.2802
-1.2299
-1.0162
-0.68207
-0.22888
0.088501
0.28534
0.29602
0.0045776
-0.74158
-0.94452
-1.062
-0.91858
-0.94757
-0.97198
-1.0254
-0.95673
-0.99792
-1.0269
-1.0269
-0.97504
-1.0223
-1.0437
-1.0025
-0.91858
-0.97046
-0.97656
-0.94757
-0.89722
-0.93689
-0.91705
-0.91553
-0.84076
-0.86517
-0.85297
-0.83923
-0.74005
-0.75378
-0.74921
-0.72021
-0.65155
-0.66376
-0.59509
-0.57678
-0.47302
-0.50354
-0.47302
-0.50354
-0.41962
-0.49591
-0.48218
-0.50049
-0.42572
-0.49896
-0.56458
-0.64697
-0.64697
-0.75684
-0.82092
-0.88348
-0.86823
-0.96436
-1.0086
-1.0315
-1.001
-1.0666
-1.0757
-1.0803
-1.0376
-1.0742
-1.0956
-1.0849
-1.0529
-1.0681
-1.1017
-1.0941
-1.0178
-1.0406
-1.0971
-1.0635
-1.03
-1.0773
-1.0864
-1.0681
-1.0269
-1.0925
-1.1169
-1.0681
-1.033
-1.0498
-1.1124
-1.0941
-1.0651
-1.0818
-1.1108
-1.091
-1.0818
-1.1002
-1.1429
-1.1047
-1.0849
-1.1047
-1.1475
-1.0971
-1.059
-1.0651
-1.0696
-1.0437
-1.0345
-1.0468
-1.1093
-1.0468
-0.98724
-1.0178
-1.0895
-1.062
-1.088
-1.1246
-1.2054
-1.1841
-1.1795
-1.178
-1.2497
-1.2039
-1.1978
-1.1871
-1.2589
-1.2131
-1.21
-1.2024
-1.2512
-1.2573
-1.3885
-1.1917
-1.0315
-0.67139
-0.25024
0.090027
0.354
0.37842
-0.013733
-0.6073
-0.92468
-0.9613
-0.94757
-0.9903
-1.0757
-1.033
-1.0574
-1.059
-1.1246
-1.0529
-1.0635
-1.0284
-1.0696
-1.0269
-1.0391
-1.0208
-1.0483
-0.99182
-0.96893
-0.95825
-1.004
-0.92621
-0.92316
-0.89722
-0.95215
-0.88654
-0.83618
-0.80566
-0.8255
-0.77209
-0.71564
-0.66833
-0.69885
-0.63324
-0.57831
-0.56
-0.57526
-0.52948
-0.4715
-0.4837
-0.55389
-0.53864
-0.51117
-0.54626
-0.63477
-0.69122
-0.71716
-0.80719
-0.90637
-0.94757
-0.96588
-1.0193
-1.0834
-1.1017
-1.0513
-1.091
-1.1383
-1.1536
-1.1154
-1.0956
-1.1307
-1.1307
-1.0635
-1.088
-1.1063
-1.1215
-1.0574
-1.0696
-1.0818
-1.1078
-1.0574
-1.0757
-1.0849
-1.088
-1.0483
-1.0986
-1.1093
-1.1261
-1.0315
-1.091
-1.1185
-1.1292
-1.0605
-1.0651
-1.0925
-1.1368
-1.0712
-1.0986
-1.088
-1.1322
-1.0483
-1.0986
-1.1093
-1.1261
-1.0757
-1.0895
-1.0925
-1.1063
-1.0193
-1.0559
-1.0498
-1.0513
-0.99335
-1.0391
-0.97961
-1.0406
-0.93994
-0.95215
-0.98877
-1.0269
-0.96893
-1.0254
-1.0895
-1.1353
-1.0849
-1.1292
-1.1597
-1.1688
-1.1108
-1.1429
-1.1581
-1.1765
-1.1246
-1.1444
-1.1658
-1.1871
-1.1856
-1.2833
-1.2024
-1.0071
-0.66681
-0.29602
0.067139
0.36316
0.45471
0.14343
-0.49591
-0.72021
-0.84534
-0.84229
-0.93842
-0.98267
-0.93994
-0.9613
-1.0193
-1.0239
-0.99487
-0.99945
-1.0071
-0.9964
-0.95673
-0.97351
-1.0178
-0.99335
-0.93689
-0.93384
-0.9552
-0.92773
-0.89874
-0.86517
-0.8728
-0.82397
-0.8194
-0.79346
-0.81177
-0.76294
-0.72479
-0.67139
-0.69275
-0.63171
-0.58441
-0.53864
-0.54626
-0.50964
-0.50812
-0.48828
-0.50354
-0.46692
-0.48065
-0.48828
-0.59052
-0.54016
-0.59967
-0.67902
-0.8255
-0.82092
-0.87433
-0.90179
-1.0223
-1.0101
-1.0361
-1.033
-1.1154
-1.0696
-1.0742
-1.0574
-1.1353
-1.0849
-1.0956
-1.0757
-1.1246
-1.0941
-1.0849
-1.0605
-1.1185
-1.0635
-1.0773
-1.0574
-1.1017
-1.0544
-1.0742
-1.0391
-1.0971
-1.0788
-1.0742
-1.0635
-1.088
-1.0895
-1.0773
-1.0452
-1.0895
-1.0864
-1.0681
-1.0666
-1.1124
-1.1047
-1.0651
-1.0391
-1.1017
-1.1093
-1.0483
-1.0132
-1.0284
-1.0452
-0.9964
-0.98724
-0.98419
-1.0025
-0.9552
-0.92316
-0.98572
-1.0468
-0.97046
-0.94299
-1.0468
-1.1215
-1.0544
-1.0544
-1.1169
-1.1841
-1.0864
-1.0849
-1.1139
-1.1627
-1.062
-1.0498
-1.1108
-1.149
-1.0696
-1.1826
-1.2512
-1.1292
-0.68817
-0.39368
0.013733
0.23956
0.53558
0.3418
-0.2243
-0.6958
-0.78888
-0.83618
-0.8194
-0.93079
-0.82092
-0.85602
-0.89417
-0.98724
-0.84076
-0.85907
-0.88348
-0.91553
-0.77515
-0.8194
-0.8606
-0.92621
-0.76447
-0.75989
-0.80261
-0.84991
-0.71564
-0.72784
-0.71869
-0.78735
-0.62103
-0.62714
-0.62561
-0.68207
-0.51117
-0.50354
-0.50659
-0.54321
-0.39978
-0.37231
-0.36316
-0.41046
-0.28687
-0.28534
-0.33264
-0.38757
-0.27924
-0.30212
-0.36316
-0.45013
-0.39673
-0.49286
-0.59814
-0.68359
-0.63171
-0.6958
-0.8194
-0.88348
-0.81024
-0.85297
-0.92468
-0.94147
-0.85907
-0.86975
-0.93231
-0.98877
-0.91553
-0.85449
-0.92468
-0.94299
-0.85449
-0.8194
-0.91705
-0.93384
-0.84534
-0.81635
-0.91705
-0.92468
-0.85297
-0.83771
-0.92316
-0.92773
-0.8667
-0.83313
-0.92926
-0.94604
-0.87891
-0.8728
-0.93842
-0.9552
-0.89569
-0.89569
-0.96741
-0.96741
-0.90637
-0.8728
-0.98724
-0.98572
-0.93384
-0.88043
-0.96283
-0.98724
-0.91858
-0.90637
-0.95673
-0.92621
-0.85297
-0.81024
-0.90027
-0.89722
-0.84076
-0.79956
-0.89264
-0.87433
-0.81787
-0.8255
-0.93079
-0.98724
-0.94757
-0.93536
-1.0361
-1.059
-1.0132
-1.0162
-1.0544
-1.062
-0.99182
-0.97504
-1.0742
-1.0849
-1.0178
-1.0147
-1.1841
-1.2344
-0.97046
-0.67596
-0.44861
0.04425
0.39368
0.69427
0.51422
-0.015259
-0.4425
-0.63171
-0.76141
-0.78735
-0.78278
-0.83313
-0.88806
-0.914
-0.8316
-0.86975
-0.90485
-0.92926
-0.86365
-0.83008
-0.86823
-0.89569
-0.84076
-0.82245
-0.84229
-0.84839
-0.74921
-0.737
-0.7843
-0.79346
-0.69733
-0.67596
-0.71259
-0.70801
-0.59967
-0.58594
-0.57831
-0.58594
-0.45929
-0.46692
-0.48218
-0.45929
-0.35858
-0.3418
-0.39063
-0.39368
-0.29907
-0.32654
-0.37231
-0.45013
-0.42419
-0.45929
-0.5249
-0.63171
-0.60883
-0.71564
-0.80566
-0.90485
-0.84839
-0.87891
-0.95215
-0.9903
-0.91248
-0.93994
-0.96741
-0.99792
-0.91858
-0.94757
-1.001
-1.0147
-0.92621
-0.92163
-0.96741
-0.97961
-0.90179
-0.93536
-0.97504
-0.97351
-0.914
-0.92316
-0.97046
-1.004
-0.92163
-0.92926
-1.0071
-0.99487
-0.93536
-0.92773
-1.0315
-1.0208
-0.97656
-0.95367
-1.0468
-1.0193
-0.96893
-0.97504
-1.033
-1.0315
-1.0071
-1.001
-1.0529
-1.0498
-0.97351
-0.93384
-0.9903
-0.99182
-0.91705
-0.91705
-0.9552
-0.94757
-0.95673
-0.87738
-0.9552
-0.93842
-0.93231
-0.95367
-1.0986
-1.0818
-1.0559
-1.0513
-1.1505
-1.1459
-1.1078
-1.0986
-1.1475
-1.1673
-1.12
-1.1139
-1.1444
-1.152
-1.1398
-1.2604
-1.2741
-1.0681
-0.72174
-0.39063
-0.015259
0.31128
0.50964
0.27924
-0.34485
-0.65002
-0.80719
-0.80872
-0.92621
-0.98267
-0.95215
-0.95825
-1.0437
-1.0315
-0.97809
-1.0086
-1.0513
-1.0361
-1.0239
-0.98572
-1.0193
-1.0483
-0.99792
-0.9613
-0.97504
-0.97504
-0.93079
-0.90027
-0.92621
-0.91705
-0.85297
-0.85907
-0.90637
-0.86975
-0.79803
-0.75989
-0.7782
-0.72021
-0.69122
-0.65613
-0.66528
-0.62103
-0.57068
-0.58899
-0.64545
-0.65308
-0.62714
-0.61188
-0.67291
-0.72784
-0.77515
-0.83618
-0.91248
-0.97809
-0.99945
-1.0468
-1.1307
-1.2115
-1.1871
-1.2009
-1.2268
-1.2726
-1.2192
-1.2619
-1.2802
-1.2802
-1.2314
-1.2543
-1.2878
-1.2695
-1.2375
-1.2436
-1.268
-1.2741
-1.2573
-1.2756
-1.2756
-1.2573
-1.2589
-1.2756
-1.2894
-1.2878
-1.2894
-1.2939
-1.3062
-1.326
-1.329
-1.3397
-1.3535
-1.3321
-1.3245
-1.3748
-1.3611
-1.3504
-1.3123
-1.3626
-1.3733
-1.3672
-1.3535
-1.3733
-1.3596
-1.3016
-1.268
-1.2985
-1.2833
-1.2955
-1.2589
-1.2695
-1.2924
-1.2482
-1.2573
-1.2741
-1.3
-1.3306
-1.358
-1.4145
-1.4511
-1.4465
-1.4008
-1.4359
-1.4694
-1.4786
-1.4542
-1.4694
-1.4938
-1.4862
-1.4359
-1.4618
-1.5152
-1.6327
-1.5961
-1.3748
-1.1475
-0.82855
-0.38605
-0.071716
0.11749
-0.088501
-0.58746
-0.87585
-1.1322
-1.1612
-1.181
-1.2451
-1.3382
-1.329
-1.3275
-1.3367
-1.3702
-1.3901
-1.3321
-1.3077
-1.3535
-1.3763
-1.3336
-1.3336
-1.3397
-1.3046
-1.2726
-1.2741
-1.2665
-1.2756
-1.2177
-1.1963
-1.2177
-1.1856
-1.123
-1.0834
-1.1017
-1.0925
-1.0071
-0.97809
-0.98724
-0.95825
-0.94604
-0.92163
-0.89264
-0.89874
-0.85297
-0.88806
-0.91705
-0.92468
-0.9079
-0.9613
-1.0376
-1.1108
-1.1627
-1.2177
-1.2833
-1.3443
-1.3565
-1.384
-1.4648
-1.4587
-1.4481
-1.4664
-1.4862
-1.4908
-1.4679
-1.4969
-1.4923
-1.5244
-1.4816
-1.4755
-1.4694
-1.4755
-1.4603
-1.4725
-1.4877
-1.4587
-1.4511
-1.4877
-1.5091
-1.4694
-1.4572
-1.4893
-1.5182
-1.506
-1.5213
-1.5228
-1.5091
-1.5167
-1.5289
-1.561
-1.535
-1.5106
-1.4893
-1.5381
-1.5671
-1.5472
-1.5427
-1.564
-1.5594
-1.5488
-1.4587
-1.4877
-1.4847
-1.4648
-1.4557
-1.4313
-1.4389
-1.4603
-1.4069
-1.4313
-1.4572
-1.4587
-1.4984
-1.5488
-1.5579
-1.5686
-1.5656
-1.5793
-1.6052
-1.6037
-1.5915
-1.5961
-1.6266
-1.6357
-1.6174
-1.6144
-1.6617
-1.6647
-1.7548
-1.6693
-1.4801
-1.1673
-0.79193
-0.42725
-0.15259
-0.094604
-0.30518
-0.98267
-1.2329
-1.4114
-1.3412
-1.3824
-1.4221
-1.4343
-1.4496
-1.4679
-1.4664
-1.4374
-1.4191
-1.4648
-1.4786
-1.4465
-1.4114
-1.3885
-1.4069
-1.413
-1.4023
-1.3855
-1.3596
-1.3504
-1.3092
-1.2909
-1.3
-1.2848
-1.2527
-1.2115
-1.1993
-1.1536
-1.1276
-1.1078
-1.0834
-1.0223
-0.9964
-0.96283
-0.97809
-0.93536
-0.92773
-0.914
-0.96283
-0.9613
-0.96893
-1.0025
-1.0849
-1.0941
-1.1581
-1.2177
-1.3153
-1.3535
-1.3855
-1.413
-1.4755
-1.4816
-1.4893
-1.4969
-1.5167
-1.5366
-1.5228
-1.5228
-1.5335
-1.5091
-1.5091
-1.5228
-1.5366
-1.5106
-1.5076
-1.5167
-1.5289
-1.4984
-1.4954
-1.4969
-1.506
-1.4984
-1.4938
-1.4862
-1.5259
-1.5152
-1.5076
-1.5106
-1.535
-1.4984
-1.5091
-1.5091
-1.5045
-1.4465
-1.4282
-1.4679
-1.4603
-1.4084
-1.4343
-1.4114
-1.4343
-1.4175
-1.4206
-1.4587
-1.5228
-1.5305
-1.5472
-1.5854
-1.5884
-1.5747
-1.5701
-1.6098
-1.5991
-1.5793
-1.5778
-1.5945
-1.5778
-1.5732
-1.561
-1.7166
-1.7624
-1.6281
-1.3565
-1.059
-0.57678
-0.25024
-0.045776
-0.17395
-0.54626
-0.99945
-1.2634
-1.4084
-1.3229
-1.3214
-1.3535
-1.4465
-1.4557
-1.4053
-1.4145
-1.4618
-1.4511
-1.4206
-1.3931
-1.4236
-1.3962
-1.3718
-1.3504
-1.4023
-1.358
-1.3245
-1.3062
-1.3458
-1.3046
-1.2573
-1.2466
-1.2711
-1.2177
-1.178
-1.1368
-1.1536
-1.1124
-1.059
-1.0208
-1.0437
-0.99182
-0.9491
-0.93994
-0.97656
-0.9491
-0.96283
-0.94757
-1.0178
-1.0025
-1.0559
-1.091
-1.1703
-1.207
-1.2604
-1.2878
-1.3672
-1.4297
-1.442
-1.4465
-1.4786
-1.4694
-1.4725
-1.4603
-1.4816
-1.4877
-1.4923
-1.474
-1.4755
-1.4877
-1.4603
-1.4648
-1.4801
-1.5045
-1.4572
-1.442
-1.4877
-1.4816
-1.4481
-1.4297
-1.4359
-1.4496
-1.4587
-1.4435
-1.4648
-1.4862
-1.4587
-1.4725
-1.474
-1.4771
-1.4908
-1.4587
-1.4542
-1.4755
-1.4893
-1.5045
-1.4801
-1.5137
-1.5182
-1.4999
-1.4816
-1.4999
-1.4618
-1.4282
-1.4008
-1.4725
-1.4297
-1.4023
-1.3474
-1.3992
-1.3748
-1.3748
-1.3702
-1.4053
-1.3962
-1.413
-1.4496
-1.5228
-1.5121
-1.5274
-1.5305
-1.5823
-1.5396
-1.5396
-1.5198
-1.5472
-1.535
-1.5274
-1.5305
-1.5717
-1.5579
-1.6891
-1.6434
-1.4801
-1.1505
-0.81635
-0.40588
-0.13428
0.045776
-0.177
-0.72784
-1.0406
-1.2024
-1.2421
-1.2924
-1.3718
-1.326
-1.3718
-1.3931
-1.4206
-1.3779
-1.3657
-1.3992
-1.4023
-1.3702
-1.3504
-1.3702
-1.3702
-1.3367
-1.326
-1.3077
-1.3
-1.3062
-1.2634
-1.2375
-1.2436
-1.2115
-1.2161
-1.207
-1.1734
-1.091
-1.0696
-1.0605
-1.0498
-0.99487
-0.95825
-0.95978
-0.94147
-0.92621
-0.89722
-0.91248
-0.91858
-0.90179
-0.90485
-0.93536
-0.99945
-1.0498
-1.0956
-1.1658
-1.2283
-1.2894
-1.3351
-1.4023
-1.4526
-1.4511
-1.4465
-1.4862
-1.4923
-1.4969
-1.4633
-1.5106
-1.5091
-1.5198
-1.4542
-1.5137
-1.4877
-1.5152
-1.4984
-1.506
-1.4893
-1.5076
-1.4664
-1.5244
-1.4923
-1.5244
-1.474
-1.5152
-1.4938
-1.5137
-1.4969
-1.5732
-1.5167
-1.5533
-1.5182
-1.5854
-1.5274
-1.5747
-1.5305
-1.5976
-1.5656
-1.6022
-1.535
-1.6022
-1.5671
-1.6022
-1.5457
-1.6006
-1.5488
-1.6052
-1.5762
-1.5991
-1.5594
-1.5747
-1.4999
-1.5457
-1.4984
-1.5472
-1.5152
-1.5442
-1.4908
-1.4954
-1.4511
-1.4999
-1.4999
-1.5503
-1.5213
-1.619
-1.6266
-1.6174
-1.6403
-1.6769
-1.6495
-1.6556
-1.6251
-1.6907
-1.6449
-1.6724
-1.6388
-1.6647
-1.6632
-1.7487
-1.8021
-1.7197
-1.4465
-1.1719
-0.74463
-0.4776
-0.17548
-0.15259
-0.42114
-1.033
-1.2375
-1.3641
-1.3138
-1.4313
-1.4893
-1.4694
-1.4694
-1.5076
-1.5045
-1.5137
-1.4923
-1.5274
-1.4923
-1.4771
-1.4465
-1.4694
-1.4771
-1.4008
-1.4313
-1.4374
-1.4053
-1.3565
-1.3718
-1.3626
-1.3687
-1.3
-1.2772
-1.2802
-1.2619
-1.1795
-1.1688
-1.1536
-1.1566
-1.0452
-1.091
-1.0574
-1.0529
-0.95367
-0.9964
-1.0147
-1.0483
-1.0025
-1.0239
-1.0635
-1.1261
-1.1276
-1.2329
-1.3046
-1.3855
-1.3382
-1.4343
-1.4877
-1.5442
-1.5167
-1.5823
-1.5869
-1.6129
-1.5442
-1.5945
-1.6052
-1.6174
-1.5366
-1.6296
-1.6037
-1.6327
-1.5381
-1.5823
-1.5793
-1.6022
-1.5518
-1.6144
-1.5839
-1.6037
-1.5381
-1.59
-1.5732
-1.6083
-1.5579
-1.6098
-1.5854
-1.6327
-1.5732
-1.6266
-1.6464
-1.6479
-1.5961
-1.6373
-1.6434
-1.6739
-1.6022
-1.6632
-1.6693
-1.6922
-1.6312
-1.6663
-1.6785
-1.683
-1.6403
-1.6724
-1.6968
-1.6937
-1.6769
-1.6922
-1.7212
-1.709
-1.6739
-1.6708
-1.7044
-1.6678
-1.6556
-1.6373
-1.6678
-1.6357
-1.6144
-1.619
-1.6449
-1.6083
-1.6022
-1.6098
-1.6632
-1.6724
-1.7166
-1.7273
-1.796
-1.7593
-1.7502
-1.7593
-1.8188
-1.7624
-1.7563
-1.7334
-1.8066
-1.7822
-1.7593
-1.7487
-1.9089
-1.9211
-1.7807
-1.5213
-1.3229
-0.84381
-0.56763
-0.25177
-0.35553
-0.6958
-1.1398
-1.3947
-1.5533
-1.5106
-1.5533
-1.5823
-1.6785
-1.6312
-1.6113
-1.6113
-1.6861
-1.6281
-1.6098
-1.6129
-1.6602
-1.5839
-1.5915
-1.5839
-1.6159
-1.5472
-1.5244
-1.5289
-1.5518
-1.4984
-1.5045
-1.4954
-1.4862
-1.4175
-1.3824
-1.3657
-1.3977
-1.2833
-1.236
-1.2207
-1.2314
-1.181
-1.1581
-1.1505
-1.1536
-1.0956
-1.1093
-1.0956
-1.1703
-1.1566
-1.178
-1.2146
-1.2787
-1.3245
-1.387
-1.4496
-1.5671
-1.564
-1.5915
-1.622
-1.6998
-1.6953
-1.68
-1.6953
-1.7136
-1.7166
-1.7258
-1.7105
-1.7395
-1.6876
-1.6876
-1.6983
-1.7532
-1.6968
-1.6708
-1.6907
-1.7334
-1.6922
-1.6434
-1.68
-1.7136
-1.6907
-1.6739
-1.6922
-1.7075
-1.6632
-1.6266
-1.6479
-1.6998
-1.6769
-1.6479
-1.6571
-1.7227
-1.6998
-1.6418
-1.68
-1.7288
-1.7014
-1.6495
-1.6708
-1.7105
-1.7014
-1.6174
-1.6388
-1.6556
-1.6281
-1.5778
-1.6251
-1.6083
-1.59
-1.5396
-1.5671
-1.5991
-1.5945
-1.5335
-1.5793
-1.6785
-1.7242
-1.6647
-1.6937
-1.7365
-1.7563
-1.6708
-1.6907
-1.712
-1.7395
-1.651
-1.6861
-1.7288
-1.7365
-1.7014
-1.8402
-1.8173
-1.6724
-1.2985
-0.91553
-0.58136
-0.36621
-0.177
-0.4425
-1.0269
-1.3855
-1.4755
-1.4816
-1.4679
-1.5274
-1.5289
-1.5472
-1.5732
-1.5869
-1.5488
-1.5305
-1.5732
-1.5457
-1.4938
-1.5213
-1.5305
-1.5213
-1.4725
-1.4771
-1.4954
-1.4984
-1.416
-1.4145
-1.4389
-1.442
-1.3535
-1.3428
-1.3428
-1.3107
-1.2283
-1.239
-1.2573
-1.2283
-1.1276
-1.088
-1.1459
-1.1169
-1.0391
-1.0498
-1.0864
-1.088
-1.0284
-1.0635
-1.1505
-1.1734
-1.1688
-1.2283
-1.3458
-1.3977
-1.4008
-1.4603
-1.561
-1.5869
-1.564
-1.5961
-1.6129
-1.6174
-1.5839
-1.5976
-1.6998
-1.6983
-1.6113
-1.5472
-1.6342
-1.6266
-1.5808
-1.5778
-1.6174
-1.6006
-1.5579
-1.5762
-1.6357
-1.5869
-1.5762
-1.5869
-1.6296
-1.6129
-1.5762
-1.5686
-1.6388
-1.6251
-1.59
-1.5961
-1.6434
-1.6251
-1.6037
-1.5747
-1.6342
-1.6449
-1.6022
-1.6083
-1.6815
-1.6556
-1.59
-1.5915
-1.6464
-1.59
-1.5732
-1.561
-1.5991
-1.5778
-1.5152
-1.5228
-1.5808
-1.5121
-1.5182
-1.5366
-1.6113
-1.59
-1.6068
-1.6068
-1.6968
-1.7105
-1.6525
-1.6266
-1.7334
-1.7197
-1.6754
-1.68
-1.738
-1.712
-1.6968
-1.6724
-1.7761
-1.8661
-1.8005
-1.5808
-1.3702
-0.98724
-0.51422
-0.2533
-0.12665
-0.32959
-0.84076
-1.1307
-1.4282
-1.4343
-1.4389
-1.4801
-1.5686
-1.5594
-1.5259
-1.503
-1.5717
-1.5396
-1.5182
-1.5244
-1.5671
-1.5503
-1.4908
-1.4511
-1.5091
-1.4969
-1.4343
-1.4359
-1.4633
-1.4236
-1.3763
-1.3519
-1.4084
-1.3641
-1.3
-1.265
-1.2833
-1.2604
-1.1627
-1.1597
-1.1917
-1.1078
-1.0239
-1.0162
-1.0666
-1.0437
-1.0071
-0.99335
-1.059
-1.0681
-1.0361
-1.0712
-1.1917
-1.2817
-1.2695
-1.3336
-1.4587
-1.503
-1.5091
-1.5411
-1.6174
-1.6296
-1.5778
-1.6327
-1.6769
-1.6647
-1.6144
-1.6434
-1.6724
-1.6953
-1.6144
-1.6388
-1.6617
-1.6708
-1.5915
-1.6144
-1.6449
-1.6663
-1.5823
-1.5976
-1.6449
-1.683
-1.5869
-1.619
-1.6495
-1.6586
-1.6052
-1.651
-1.6907
-1.6968
-1.6052
-1.6266
-1.6785
-1.7014
-1.6342
-1.6556
-1.6785
-1.7044
-1.6617
-1.6632
-1.7014
-1.7319
-1.6449
-1.6632
-1.6785
-1.6953
-1.6525
-1.712
-1.7059
-1.709
-1.6434
-1.6388
-1.6388
-1.683
-1.6037
-1.5945
-1.6617
-1.6663
-1.5839
-1.6281
-1.6144
-1.6937
-1.6525
-1.7456
-1.7731
-1.8051
-1.7517
-1.7532
-1.7822
-1.8265
-1.741
-1.7899
-1.8158
-1.8265
-1.7517
-1.7731
-1.8234
-1.9379
-1.8936
-1.7487
-1.5106
-1.2177
-0.69427
-0.46692
-0.20752
-0.35553
-0.84229
-1.3718
-1.6159
-1.6693
-1.5518
-1.5961
-1.6617
-1.6663
-1.6373
-1.6266
-1.6479
-1.6937
-1.6434
-1.6388
-1.6602
-1.6663
-1.6129
-1.59
-1.6632
-1.6144
-1.5656
-1.5518
-1.6006
-1.59
-1.5076
-1.4847
-1.5457
-1.5274
-1.474
-1.4008
-1.4374
-1.4084
-1.3077
-1.2741
-1.3397
-1.2894
-1.2054
-1.1185
-1.2085
-1.1871
-1.1688
-1.12
-1.2268
-1.1932
-1.1795
-1.1826
-1.3428
-1.3535
-1.4084
-1.4023
-1.5793
-1.6327
-1.6479
-1.6556
-1.7853
-1.7929
-1.7807
-1.7273
-1.8814
-1.8616
-1.8204
-1.7792
-1.8768
-1.857
-1.8372
-1.7365
-1.8707
-1.8448
-1.8158
-1.8021
-1.8494
-1.8158
-1.8158
-1.7654
-1.8616
-1.8402
-1.8219
-1.7746
-1.8677
-1.8448
-1.8127
-1.7838
-1.9241
-1.8326
-1.8326
-1.8005
-1.8875
-1.8677
-1.8494
-1.7883
-1.8661
-1.8494
-1.8173
-1.7639
-1.8524
-1.8265
-1.7929
-1.7441
-1.825
-1.8372
-1.7761
-1.7426
-1.8417
-1.8982
-1.9028
-1.8814
-1.9501
-1.9623
-1.8951
-1.8982
-1.9852
-1.9577
-1.918
-1.8906
-1.9897
-1.9592
-1.9455
-1.8951
-2.0889
-2.0996
-1.8646
-1.5686
-1.3153
-0.87891
-0.57373
-0.30975
-0.59509
-1.2512
-1.6769
-1.7685
-1.8784
-1.8127
-1.7349
-1.7349
-1.8448
-1.8433
-1.8051
-1.7654
-1.8372
-1.8417
-1.7761
-1.7441
-1.8173
-1.8188
-1.767
-1.6876
-1.7609
-1.767
-1.7105
-1.6571
-1.7014
-1.6922
-1.6373
-1.5671
-1.6479
-1.6159
-1.535
-1.4603
-1.5289
-1.5305
-1.413
-1.3519
-1.3748
-1.3779
-1.2756
-1.2405
-1.2955
-1.3077
-1.239
-1.2375
-1.3336
-1.3931
-1.3779
-1.3626
-1.5152
-1.5915
-1.5961
-1.6403
-1.7365
-1.8143
-1.7715
-1.7883
-1.8799
-1.9424
-1.9073
-1.8784
-1.8936
-1.9348
-1.8845
-1.8677
-1.9577
-1.9485
-1.8326
-1.8661
-1.9333
-1.944
-1.8356
-1.8173
-1.8814
-1.9104
-1.8295
-1.8219
-1.8921
-1.9287
-1.8463
-1.8311
-1.9028
-1.9485
-1.8799
-1.8875
-1.9455
-1.9669
-1.8723
-1.8799
-1.9196
-1.9119
-1.8661
-1.8539
-1.915
-1.9379
-1.8677
-1.8677
-1.9745
-1.9669
-1.886
-1.9409
-2.0615
-2.0676
-2.034
-2.0493
-2.1271
-2.124
-2.0752
-2.0767
-2.1179
-2.1347
-2.1103
-2.0981
-2.1332
-2.1301
-2.1667
-2.2476
-2.1957
-1.9394
-1.6022
-1.1826
-0.89111
-0.58746
-0.55847
-0.89111
-1.5396
-1.7838
-1.8661
-1.8005
-1.9272
-1.9577
-1.9424
-1.9318
-2.0004
-1.9897
-1.9684
-1.9348
-2.0035
-2.0126
-1.973
-1.9211
-1.9409
-1.9653
-1.9241
-1.8799
-1.9348
-1.9226
-1.8417
-1.7899
-1.8402
-1.8753
-1.799
-1.7303
-1.7517
-1.7654
-1.6571
-1.6006
-1.6312
-1.6251
-1.5366
-1.4664
-1.5366
-1.5396
-1.4313
-1.3565
-1.4557
-1.5274
-1.4618
-1.4206
-1.5579
-1.6418
-1.6434
-1.6617
-1.825
-1.9043
-1.8707
-1.8646
-2.002
-2.0981
-2.0248
-1.9882
-2.092
-2.1057
-2.0569
-1.9897
-2.0691
-2.1149
-2.0447
-1.9989
-2.0676
-2.1301
-2.0416
-1.9485
-2.0584
-2.1027
-2.0126
-1.9531
-2.0432
-2.092
-1.9836
-1.9455
-2.0798
-2.1057
-2.002
-1.9638
-2.0554
-2.1164
-1.9867
-1.9897
-2.0966
-2.0981
-1.9455
-1.9073
-1.9821
-2.0462
-1.9287
-1.8967
-1.9577
-2.0111
-1.8951
-1.8616
-1.9394
-2.034
-1.9409
-1.9089
-2.0538
-2.1454
-2.0493
-2.0096
-2.0752
-2.1484
-2.0401
-2.0035
-2.0859
-2.1576
-2.0401
-1.9943
-2.0752
-2.1698
-2.0737
-2.1225
-2.1622
-2.0248
-1.6068
-1.2589
-0.88348
-0.64697
-0.33112
-0.57068
-1.2207
-1.6586
-1.6754
-1.6769
-1.8036
-1.9318
-1.7715
-1.7654
-1.8478
-1.9531
-1.8127
-1.8341
-1.86
-1.9348
-1.7685
-1.7639
-1.8005
-1.8982
-1.6907
-1.6937
-1.7609
-1.8433
-1.6464
-1.6342
-1.6983
-1.7426
-1.5686
-1.5472
-1.6022
-1.6785
-1.4435
-1.416
-1.4465
-1.4923
-1.2955
-1.2711
-1.3
-1.387
-1.2161
-1.1902
-1.2329
-1.3321
-1.1871
-1.2299
-1.2909
-1.445
-1.3382
-1.4145
-1.5381
-1.709
-1.619
-1.6815
-1.7563
-1.8768
-1.738
-1.7822
-1.8494
-1.9394
-1.7761
-1.7715
-1.8646
-1.9531
-1.7899
-1.796
-1.86
-1.9318
-1.7929
-1.7822
-1.8311
-1.8982
-1.7731
-1.7746
-1.8417
-1.9058
-1.7746
-1.7883
-1.8433
-1.889
-1.7624
-1.7502
-1.8524
-1.9119
-1.7929
-1.7838
-1.8539
-1.8921
-1.7502
-1.77
-1.886
-1.9531
-1.8234
-1.7838
-1.8524
-1.9135
-1.7944
-1.7456
-1.8127
-1.8524
-1.7441
-1.7349
-1.7975
-1.8051
-1.6876
-1.6388
-1.77
-1.8265
-1.7136
-1.7456
-1.857
-1.9073
-1.8524
-1.8356
-1.8936
-1.947
-1.8402
-1.8585
-1.9516
-1.9531
-1.8631
-1.8402
-1.9409
-1.9714
-1.8936
-1.9806
-2.0096
-1.8433
-1.3565
-0.97198
-0.70038
-0.50201
-0.26703
-0.58136
-1.384
-1.6907
-1.7029
-1.6296
-1.712
-1.8066
-1.712
-1.6754
-1.77
-1.8326
-1.7105
-1.6907
-1.7685
-1.7975
-1.6785
-1.6098
-1.6968
-1.7654
-1.6205
-1.59
-1.6861
-1.7242
-1.5945
-1.5457
-1.6251
-1.6525
-1.5381
-1.5106
-1.5503
-1.5305
-1.3931
-1.3367
-1.4145
-1.4008
-1.2543
-1.2146
-1.3107
-1.3229
-1.2085
-1.1429
-1.2222
-1.2848
-1.1703
-1.1871
-1.3306
-1.3977
-1.3428
-1.4008
-1.5442
-1.6388
-1.5991
-1.6296
-1.7532
-1.7914
-1.7303
-1.7303
-1.825
-1.8677
-1.7792
-1.7715
-1.8356
-1.8921
-1.7746
-1.7563
-1.8433
-1.8707
-1.7593
-1.7731
-1.8463
-1.8204
-1.7334
-1.7731
-1.8295
-1.8829
-1.7334
-1.7349
-1.8341
-1.8646
-1.7761
-1.7929
-1.8326
-1.857
-1.7822
-1.7838
-1.8295
-1.8585
-1.7761
-1.7975
-1.8219
-1.8723
-1.7731
-1.7624
-1.828
-1.8219
-1.7197
-1.6983
-1.77
-1.8188
-1.7197
-1.6953
-1.7654
-1.8265
-1.7288
-1.7456
-1.9043
-1.9318
-1.8585
-1.8539
-1.9501
-1.9928
-1.8646
-1.8738
-1.9623
-1.9928
-1.8951
-1.8829
-1.9592
-1.9958
-1.9669
-2.0203
-1.9516
-1.7319
-1.2939
-0.89874
-0.62561
-0.41962
-0.42114
-0.84381
-1.6632
-1.8402
-1.7731
-1.7014
-1.767
-1.8143
-1.7334
-1.7365
-1.8204
-1.8494
-1.7609
-1.7212
-1.7944
-1.8417
-1.7242
-1.712
-1.7731
-1.7654
-1.6647
-1.6739
-1.7487
-1.7288
-1.6327
-1.622
-1.6251
-1.6373
-1.5854
-1.5656
-1.5488
-1.5457
-1.4786
-1.4725
-1.4786
-1.4496
-1.3214
-1.3062
-1.3351
-1.358
-1.2543
-1.2695
-1.3031
-1.329
-1.2909
-1.3123
-1.4313
-1.5198
-1.4969
-1.5121
-1.651
-1.7334
-1.7075
-1.7227
-1.8631
-1.9211
-1.828
-1.8356
-1.915
-1.9714
-1.8738
-1.8494
-1.9745
-1.9989
-1.8661
-1.8433
-1.9104
-1.9821
-1.8753
-1.8372
-1.9241
-1.9775
-1.8799
-1.8188
-1.9119
-1.976
-1.8631
-1.828
-1.9287
-1.976
-1.8707
-1.8158
-1.9287
-1.9638
-1.8555
-1.8539
-1.9714
-1.9943
-1.8295
-1.8112
-1.9196
-1.947
-1.8005
-1.7929
-1.8845
-1.886
-1.8066
-1.7868
-1.8433
-1.8921
-1.8158
-1.8158
-1.915
-1.9928
-1.9394
-1.9577
-2.0248
-2.0645
-1.9531
-1.9531
-2.0599
-2.066
-1.9714
-1.9852
-2.0538
-2.0752
-1.9791
-2.0172
-2.1713
-2.1652
-1.8341
-1.5305
-1.2543
-0.83618
-0.45166
-0.31128
-0.72327
-1.384
-1.6312
-1.7593
-1.7822
-1.8234
-1.7761
-1.8127
-1.886
-1.9073
-1.8494
-1.8356
-1.9073
-1.9028
-1.8204
-1.8066
-1.8494
-1.8661
-1.8097
-1.7838
-1.8524
-1.7975
-1.7273
-1.7365
-1.7578
-1.7731
-1.6922
-1.6937
-1.68
-1.6266
-1.5381
-1.5488
-1.5732
-1.5411
-1.4297
-1.3947
-1.4191
-1.416
-1.3306
-1.3336
-1.3977
-1.4084
-1.2985
-1.3199
-1.4664
-1.4847
-1.4526
-1.4984
-1.6022
-1.6953
-1.7242
-1.7639
-1.8539
-1.8982
-1.8661
-1.886
-1.976
-2.0172
-1.9485
-1.9333
-1.9867
-2.002
-1.9165
-1.9257
-1.9989
-2.0081
-1.9257
-1.9028
-1.9806
-1.9714
-1.9333
-1.8906
-1.9745
-1.9836
-1.8982
-1.9119
-2.7557
-1.9623
-1.9333
-1.9562
-1.9669
-1.9684
-1.9394
-1.9531
-1.9974
-2.0294
-1.9714
-1.944
-1.9714
-1.9867
-1.9623
-1.9989
-1.9928
-1.9974
-1.9562
-1.9852
-2.005
-2.0004
-1.9516
-1.9363
-1.9211
-1.9119
-1.8799
-1.915
-1.889
-1.857
-1.857
-1.8311
-1.8936
-1.886
-1.9043
-1.9028
-1.9699
-1.9974
-1.9974
-2.0493
-2.0737
-2.0248
-2.0203
-2.0294
-2.0782
-2.0615
-2.0294
-2.0447
-2.0584
-2.0599
-2.0752
-2.153
-2.1484
-1.9394
-1.6663
-1.3748
-0.93994
-0.63324
-0.33569
-0.54932
-1.123
-1.5228
-1.6922
-1.7334
-1.7899
-1.8463
-1.8494
-1.8784
-1.8723
-1.8753
-1.8661
-1.8799
-1.8723
-1.86
-1.8707
-1.8768
-1.8539
-1.8356
-1.8066
-1.8127
-1.8188
-1.7883
-1.7319
-1.7441
-1.738
-1.7136
-1.6617
-1.6937
-1.6556
-1.6022
-1.5762
-1.5594
-1.5259
-1.4816
-1.4572
-1.4465
-1.4359
-1.4069
-1.3519
-1.3519
-1.3718
-1.3763
-1.3611
-1.4145
-1.4526
-1.445
-1.4877
-1.5839
-1.622
-1.6556
-1.738
-1.7914
-1.8524
-1.8555
-1.8784
-1.9318
-1.9485
-1.9348
-1.9165
-1.9547
-1.9577
-1.9257
-1.9196
-1.9165
-1.9165
-1.9058
-1.9119
-1.9119
-1.9394
-1.9135
-1.9333
-1.9196
-1.9257
-1.8982
-1.915
-1.918
-1.9226
-1.8951
-1.8906
-1.9104
-1.9196
-1.9257
-1.8829
-1.9089
-1.9409
-1.9516
-1.9058
-1.9073
-1.9379
-1.9226
-1.9058
-1.9318
-1.947
-1.9577
-1.918
-1.918
-1.9363
-1.9257
-1.9028
-1.9287
-1.9272
-1.9394
-1.8906
-1.8951
-1.9196
-1.9058
-1.8677
-1.857
-1.8707
-1.8433
-1.8112
-1.8127
-1.8433
-1.8494
-1.7426
-1.7914
-1.8326
-1.8219
-1.825
-1.8829
-1.9135
-1.9028
-1.918
-1.9547
-1.9455
-1.9241
-1.9318
-1.9562
-1.9669
-1.9379
-1.9333
-1.9699
-1.9531
-1.947
-2.0462
-2.0554
-1.9058
-1.5671
-1.2207
-0.78583
-0.55542
-0.33112
-0.54779
-1.1917
-1.6266
-1.7761
-1.7654
-1.741
-1.7532
-1.7685
-1.7578
-1.8051
-1.8127
-1.8234
-1.7883
-1.7914
-1.7731
-1.7563
-1.7395
-1.741
-1.7303
-1.7075
-1.6953
-1.6861
-1.709
-1.6556
-1.6113
-1.6449
-1.6327
-1.5884
-1.5869
-1.5976
-1.5472
-1.4771
-1.4526
-1.4618
-1.4008
-1.3428
-1.3474
-1.3336
-1.3138
-1.2604
-1.2634
-1.2741
-1.297
-1.2695
-1.2604
-1.3321
-1.3626
-1.3992
-1.4496
-1.5182
-1.5732
-1.6266
-1.6876
-1.7319
-1.7593
-1.7578
-1.7883
-1.828
-1.857
-1.8127
-1.8021
-1.8372
-1.8402
-1.8539
-1.8188
-1.8417
-1.8356
-1.7929
-1.8097
-1.8463
-1.8173
-1.7853
-1.8036
-1.8234
-1.8341
-1.7944
-1.7685
-1.8402
-1.8524
-1.7944
-1.767
-1.8356
-1.8417
-1.7853
-1.8021
-1.8555
-1.8631
-1.8066
-1.8265
-1.8631
-1.8341
-1.7944
-1.7929
-1.799
-1.8021
-1.7517
-1.7532
-1.8204
-1.7593
-1.7563
-1.7349
-1.7059
-1.7563
-1.7319
-1.7303
-1.8448
-1.86
-1.8326
-1.8631
-1.8951
-1.8967
-1.9089
-1.8967
-1.9043
-1.9043
-1.8906
-1.9012
-1.9089
-1.9119
-1.8936
-1.944
-2.0493
-1.8753
-1.6083
-1.2878
-0.90027
-0.55389
-0.30365
-0.42572
-0.91248
-1.5823
-1.709
-1.799
-1.7456
-1.7075
-1.741
-1.6983
-1.7395
-1.7792
-1.7456
-1.7136
-1.7487
-1.7563
-1.7273
-1.6861
-1.7075
-1.7227
-1.6785
-1.6464
-1.6632
-1.6724
-1.6251
-1.564
-1.6006
-1.6068
-1.5564
-1.5137
-1.5091
-1.5091
-1.4557
-1.3687
-1.4053
-1.4053
-1.3168
-1.2589
-1.2543
-1.2741
-1.2207
-1.1993
-1.2299
-1.2451
-1.2375
-1.2222
-1.2924
-1.3428
-1.3687
-1.3779
-1.4969
-1.5671
-1.5869
-1.6251
-1.7319
-1.77
-1.7532
-1.7487
-1.8097
-1.8265
-1.7929
-1.7929
-1.8234
-1.8204
-1.8066
-1.8021
-1.8417
-1.8265
-1.799
-1.7731
-1.8127
-1.8234
-1.7899
-1.7838
-1.828
-1.799
-1.7761
-1.7761
-1.796
-1.799
-1.7853
-1.7838
-1.8265
-1.8295
-1.8036
-1.7731
-1.8219
-1.8616
-1.8143
-1.7868
-1.8112
-1.8158
-1.7639
-1.712
-1.7456
-1.7532
-1.7029
-1.7029
-1.7426
-1.7334
-1.7334
-1.709
-1.7639
-1.8173
-1.8143
-1.8448
-1.9089
-1.9211
-1.8616
-1.8799
-1.9043
-1.9318
-1.8875
-1.8768
-1.915
-1.9104
-1.886
-1.8753
-1.9928
-2.0859
-1.9241
-1.6693
-1.4084
-1.0376
-0.61188
-0.30518
-0.33875
-0.70343
-1.3382
-1.5488
-1.7258
-1.6769
-1.6739
-1.6937
-1.7548
-1.7746
-1.7288
-1.7288
-1.7685
-1.77
-1.7288
-1.7197
-1.7456
-1.7578
-1.7181
-1.6983
-1.7197
-1.709
-1.6678
-1.6479
-1.6632
-1.6464
-1.5915
-1.5488
-1.5991
-1.564
-1.5106
-1.4771
-1.4755
-1.4389
-1.3885
-1.358
-1.3702
-1.3336
-1.2787
-1.2604
-1.3
-1.2817
-1.2512
-1.2451
-1.3245
-1.3138
-1.3245
-1.3596
-1.4618
-1.5213
-1.5488
-1.6174
-1.6769
-1.738
-1.7334
-1.7838
-1.8555
-1.8661
-1.8173
-1.8234
-1.8753
-1.8723
-1.8127
-1.8112
-1.8845
-1.8295
-1.7853
-1.7853
-1.8448
-1.8433
-1.7944
-1.8005
-1.8402
-1.828
-1.7685
-1.7944
-1.8463
-1.8478
-1.8005
-1.8143
-1.857
-1.8509
-1.7899
-1.825
-1.857
-1.8906
-1.8555
-1.8402
-1.8814
-1.9043
-1.8799
-1.8341
-1.9012
-1.9012
-1.857
-1.8265
-1.8478
-1.8677
-1.7868
-1.7288
-1.8112
-1.8036
-1.741
-1.7685
-1.7944
-1.7914
-1.7532
-1.77
-1.86
-1.9119
-1.9028
-1.9135
-1.9775
-1.9684
-1.944
-1.9241
-1.9501
-1.9836
-1.9623
-1.9424
-1.9882
-1.9791
-1.9119
-1.9394
-2.1057
-2.095
-1.8433
-1.5472
-1.3031
-0.85602
-0.49286
-0.22888
-0.4837
-1.0651
-1.4069
-1.6312
-1.6861
-1.6983
-1.7075
-1.7426
-1.8097
-1.7975
-1.7532
-1.7624
-1.828
-1.799
-1.738
-1.7288
-1.7838
-1.7838
-1.7105
-1.6922
-1.7197
-1.7059
-1.6479
-1.6479
-1.6632
-1.6449
-1.59
-1.5488
-1.5823
-1.5396
-1.4877
-1.4587
-1.4679
-1.4465
-1.358
-1.3611
-1.3626
-1.326
-1.2604
-1.2756
-1.3092
-1.2833
-1.2619
-1.2726
-1.326
-1.3474
-1.355
-1.413
-1.5228
-1.5869
-1.5717
-1.6418
-1.7212
-1.7807
-1.7456
-1.7548
-1.8478
-1.8631
-1.8402
-1.8326
-1.8707
-1.8738
-1.8326
-1.8127
-1.8417
-1.8539
-1.8356
-1.8051
-1.8417
-1.8433
-1.8158
-1.8143
-1.8402
-1.8539
-1.8021
-1.8234
-1.8616
-1.86
-1.8143
-1.8188
-1.8646
-1.8799
-1.8402
-1.8295
-1.8753
-1.8738
-1.8173
-1.8051
-1.8906
-1.9073
-1.8616
-1.8143
-1.889
-1.8967
-1.8463
-1.8127
-1.886
-1.889
-1.86
-1.8463
-1.9104
-1.915
-1.8631
-1.8219
-1.886
-1.8448
-1.8021
-1.7639
-1.8341
-1.8311
-1.7731
-1.7197
-1.8143
-1.8143
-1.8204
-1.7807
-1.8173
-1.8738
-1.8646
-1.8738
-1.9592
-1.9547
-1.9501
-1.9119
-1.9882
-1.9775
-1.9531
-1.9363
-1.9791
-1.9928
-1.9531
-1.9516
-2.063
-2.1469
-2.0126
-1.7502
-1.5396
-1.1673
-0.73242
-0.37079
-0.39673
-0.70953
-1.326
-1.5671
-1.7807
-1.741
-1.7319
-1.7654
-1.8478
-1.8509
-1.825
-1.7715
-1.86
-1.8616
-1.7792
-1.741
-1.828
-1.8311
-1.77
-1.6998
-1.7807
-1.7685
-1.7059
-1.6525
-1.7563
-1.7242
-1.6632
-1.5945
-1.6495
-1.6495
-1.5671
-1.4999
-1.5579
-1.5442
-1.4618
-1.3596
-1.4267
-1.4297
-1.3535
-1.3031
-1.3779
-1.3702
-1.326
-1.268
-1.3763
-1.3977
-1.387
-1.3428
-1.5121
-1.5732
-1.5869
-1.5793
-1.741
-1.7914
-1.7868
-1.7975
-1.8875
-1.8921
-1.8661
-1.8433
-1.9257
-1.9409
-1.8967
-1.828
-1.947
-1.9318
-1.8967
-1.8661
-1.9409
-1.9531
-1.9028
-1.8646
-1.9272
-1.9241
-1.8982
-1.8417
-1.9272
-1.9684
-1.9119
-1.9089
-1.9623
-1.9455
-1.9012
-1.8768
-1.9791
-1.9791
-1.9318
-1.9104
-1.976
-1.9943
-1.976
-1.9287
-1.9897
-1.9684
-1.9348
-1.8799
-1.9272
-1.9409
-1.8768
-1.8555
-1.9257
-1.8738
-1.8921
-1.8234
-1.8753
-1.8982
-1.8723
-1.8585
-1.9821
-2.0432
-1.9897
-1.9684
-2.095
-2.1103
-2.0233
-1.9928
-2.0874
-2.1454
-2.037
-2.0248
-2.0889
-2.1591
-2.0844
-2.0584
-2.2141
-2.211
-1.8555
-1.4801
-1.1505
-0.83923
-0.52032
-0.53101
-0.9964
-1.7685
-1.8433
-1.9104
-1.9226
-1.9806
-1.9257
-1.8829
-1.947
-2.0309
-1.9409
-1.9196
-1.9638
-2.0462
-1.9333
-1.8799
-1.9333
-2.0126
-1.8799
-1.8524
-1.9089
-2.0172
-1.8478
-1.7899
-1.8631
-1.8951
-1.8051
-1.7532
-1.7593
-1.7883
-1.6891
-1.6388
-1.7029
-1.7075
-1.5823
-1.5167
-1.5671
-1.5884
-1.4771
-1.4816
-1.5106
-1.6281
-1.5106
-1.4755
-1.5518
-1.6891
-1.6281
-1.6373
-1.796
-1.915
-1.8448
-1.8539
-1.9974
-2.1362
-2.0462
-2.0233
-2.1271
-2.1667
-2.1027
-2.0752
-2.1851
-2.2202
-2.1057
-2.0676
-2.1454
-2.1973
-2.1057
-2.1103
-2.1744
-2.1835
-2.0721
-2.0569
-2.1591
-2.2018
-2.1027
-2.0599
-2.1469
-2.2446
-2.1225
-2.0676
-2.1576
-2.24
-2.1301
-2.0752
-2.2095
-2.2446
-2.0782
-2.0416
-2.1378
-2.1805
-2.0569
-2.0355
-2.0905
-2.1835
-2.0325
-1.9867
-2.0615
-2.1561
-2.0248
-2.0401
-2.1729
-2.3178
-2.1698
-2.153
-2.2186
-2.3148
-2.1652
-2.1698
-2.2415
-2.3346
-2.1835
-2.1835
-2.243
-2.3193
-2.2018
-2.2995
-2.3743
-2.2629
-1.8005
-1.4221
-1.062
-0.87585
-0.57678
-0.87433
-1.5762
-2.005
-1.9577
-2.002
-2.0187
-2.1042
-1.9867
-2.0142
-2.0874
-2.1515
-2.0294
-1.9836
-2.066
-2.1332
-2.0279
-2.0126
-2.063
-2.1027
-1.973
-1.9623
-2.034
-2.066
-1.9241
-1.886
-1.9775
-2.0065
-1.8372
-1.8112
-1.889
-1.918
-1.77
-1.709
-1.7715
-1.8051
-1.6586
-1.5854
-1.6663
-1.6891
-1.5778
-1.5503
-1.6571
-1.6998
-1.6052
-1.59
-1.7303
-1.8021
-1.7685
-1.8066
-1.9424
-2.0126
-1.9699
-1.9989
-2.1301
-2.1851
-2.1317
-2.1149
-2.2247
-2.2476
-2.1622
-2.1301
-2.2354
-2.2629
-2.1896
-2.1561
-2.2308
-2.2614
-2.1652
-2.1286
-2.2293
-2.2491
-2.1545
-2.1301
-2.2308
-2.2583
-2.1622
-2.1255
-2.2461
-2.2858
-2.211
-2.1881
-2.2507
-2.2797
-2.1774
-2.1774
-2.2629
-2.3026
-2.1881
-2.1317
-2.2263
-2.2293
-2.1332
-2.1149
-2.1637
-2.2278
-2.1423
-2.0798
-2.1698
-2.2385
-2.1606
-2.1774
-2.2797
-2.3682
-2.2858
-2.2659
-2.3544
-2.4216
-2.3239
-2.2903
-2.3682
-2.4139
-2.3193
-2.2797
-2.3651
-2.4155
-2.3544
-2.4216
-2.4887
-2.3209
-1.9348
-1.5854
-1.1734
-0.93384
-0.62256
-0.8667
-1.5198
-1.9196
-2.0538
-2.0203
-2.1164
-2.1912
-2.1149
-2.124
-2.2018
-2.2324
-2.15
-2.1469
-2.1744
-2.2156
-2.1118
-2.0844
-2.1179
-2.1683
-2.066
-2.0477
-2.095
-2.1194
-1.9943
-1.9623
-2.002
-2.063
-1.9287
-1.8799
-1.9318
-1.9577
-1.8066
-1.7487
-1.8112
-1.8555
-1.6922
-1.6266
-1.6922
-1.7288
-1.5717
-1.5564
-1.6663
-1.7349
-1.6052
-1.5915
-1.7227
-1.8036
-1.7456
-1.7914
-1.947
-2.034
-1.9836
-1.9928
-2.1149
-2.1957
-2.0996
-2.0905
-2.1683
-2.2095
-2.0981
-2.0905
-2.1851
-2.2079
-2.1057
-2.1057
-2.1637
-2.1973
-2.1042
-2.0752
-2.1423
-2.1652
-2.0798
-2.0905
-2.1698
-2.1713
-2.0905
-2.066
-2.1545
-2.1713
-2.1118
-2.0798
-2.1423
-2.1469
-2.0996
-2.0905
-2.1713
-2.1683
-2.1072
-2.1042
-2.2095
-2.1774
-2.1057
-2.0981
-2.1896
-2.1744
-2.1118
-2.0645
-2.1103
-2.0721
-2.0081
-1.9943
-2.0645
-2.0569
-2.0096
-1.973
-2.0187
-2.0264
-2.0065
-1.9943
-2.1042
-2.1408
-2.1164
-2.1194
-2.211
-2.2141
-2.182
-2.1271
-2.2079
-2.2156
-2.1774
-2.1072
-2.1942
-2.2034
-2.1561
-2.1698
-2.3407
-2.3071
-2.0386
-1.7487
-1.4862
-1.0681
-0.7019
-0.48065
-0.77057
-1.3397
-1.59
-1.8051
-1.889
-1.973
-1.9485
-1.9638
-1.9974
-2.0569
-1.9821
-1.9958
-2.0355
-2.0615
-1.9699
-1.9821
-2.0065
-2.0172
-1.9592
-1.947
-1.973
-1.9852
-1.8875
-1.8661
-1.8951
-1.918
-1.8417
-1.799
-1.8143
-1.8478
-1.7426
-1.6861
-1.7105
-1.7227
-1.6266
-1.5945
-1.6022
-1.6052
-1.5106
-1.5366
-1.5656
-1.5961
-1.5182
-1.5564
-1.5961
-1.6495
-1.6174
-1.7105
-1.7639
-1.8509
-1.8433
-1.9089
-1.9958
-2.0462
-2.0096
-2.0737
-2.0813
-2.1378
-2.0538
-2.0859
-2.092
-2.1194
-2.0477
-2.0782
-2.092
-2.0996
-2.0462
-2.0599
-2.0874
-2.1042
-2.0325
-2.0691
-2.0874
-2.095
-2.0264
-2.0859
-2.0859
-2.1149
-2.0493
-2.0859
-2.1042
-2.1255
-2.0706
-2.0996
-2.1057
-2.15
-2.0874
-2.0981
-2.121
-2.1317
-2.066
-2.1164
-2.153
-2.1423
-2.0706
-2.1072
-2.1332
-2.1545
-2.0752
-2.1072
-2.1179
-2.1622
-2.0752
-2.1027
-2.1057
-2.1362
-2.0432
-2.0569
-2.0584
-2.0264
-1.9684
-1.9806
-2.0493
-2.0279
-1.915
-1.9089
-1.9577
-2.0004
-1.9241
-1.9577
-2.0004
-2.0752
-2.0432
-2.0721
-2.1088
-2.1118
-2.0645
-2.0554
-2.121
-2.1332
-2.0905
-2.0737
-2.0981
-2.1027
-2.0447
-2.1255
-2.2644
-2.1286
-1.825
-1.5472
-1.2314
-0.83923
-0.47607
-0.4715
-0.88501
-1.5152
-1.7044
-1.8356
-1.8158
-1.8433
-1.8631
-1.8478
-1.9226
-1.9073
-1.8906
-1.889
-1.9348
-1.8814
-1.86
-1.8356
-1.8936
-1.8646
-1.8005
-1.7792
-1.8188
-1.8005
-1.767
-1.7502
-1.767
-1.7624
-1.683
-1.6708
-1.6754
-1.6724
-1.6144
-1.5503
-1.564
-1.5335
-1.4725
-1.4542
-1.4603
-1.4313
-1.3596
-1.355
-1.4069
-1.4191
-1.384
-1.3947
-1.445
-1.4496
-1.474
-1.5228
-1.6006
-1.6647
-1.6602
-1.7456
-1.8204
-1.825
-1.8326
-1.8478
-1.9012
-1.947
-1.9104
-1.9241
-1.9272
-1.9424
-1.8784
-1.915
-1.9287
-1.9363
-1.8631
-1.8921
-1.9363
-1.9409
-1.8845
-1.8982
-1.9226
-1.9424
-1.9012
-1.915
-1.9455
-1.9333
-1.889
-1.9226
-1.973
-1.9577
-1.9089
-1.9485
-1.9653
-1.944
-1.9226
-1.9623
-1.9714
-2.005
-1.9409
-1.9455
-1.9409
-1.9318
-1.8921
-1.9012
-1.8951
-1.9165
-1.828
-1.8646
-1.8677
-1.8066
-1.8219
-1.8936
-1.8921
-1.8784
-1.8845
-1.9699
-1.9897
-2.0081
-1.9638
-2.0172
-2.0081
-2.0386
-1.9501
-2.0142
-2.0294
-2.0309
-1.9745
-2.0172
-2.0279
-2.1362
-2.0706
-1.9257
-1.6418
-1.2344
-0.7843
-0.56915
-0.46692
-0.71869
-1.3336
-1.7273
-1.8753
-1.8311
-1.7624
-1.8433
-1.86
-1.8356
-1.7731
-1.8723
-1.8433
-1.8326
-1.8204
-1.828
-1.8097
-1.8005
-1.7654
-1.7899
-1.767
-1.7532
-1.7441
-1.7502
-1.7517
-1.7044
-1.619
-1.6785
-1.6586
-1.6083
-1.5671
-1.5839
-1.5091
-1.4862
-1.4267
-1.4313
-1.4084
-1.3443
-1.3382
-1.3626
-1.3458
-1.3
-1.2802
-1.3458
-1.3687
-1.3443
-1.3687
-1.4374
-1.503
-1.5106
-1.5808
-1.6357
-1.709
-1.7105
-1.7548
-1.7853
-1.8555
-1.8021
-1.7975
-1.8875
-1.9073
-1.8478
-1.825
-1.8341
-1.8631
-1.825
-1.8372
-1.8814
-1.8539
-1.8097
-1.8036
-1.8326
-1.86
-1.7944
-1.8066
-1.828
-1.8417
-1.8158
-1.8204
-1.8234
-1.8723
-1.8097
-1.8433
-1.8585
-1.8768
-1.8051
-1.8204
-1.8356
-1.8341
-1.7761
-1.7853
-1.8051
-1.8173
-1.77
-1.7365
-1.7654
-1.7792
-1.7197
-1.7441
-1.77
-1.8143
-1.7899
-1.8509
-1.8936
-1.9272
-1.8875
-1.8875
-1.944
-1.9638
-1.9333
-1.918
-1.944
-1.9455
-1.9028
-1.9165
-1.9501
-2.0035
-2.0599
-1.9836
-1.8051
-1.503
-1.0757
-0.65155
-0.44098
-0.41046
-0.74768
-1.3428
-1.6617
-1.7578
-1.6891
-1.7014
-1.796
-1.8219
-1.7532
-1.767
-1.8143
-1.8356
-1.7715
-1.7609
-1.8005
-1.8127
-1.738
-1.7319
-1.7609
-1.7502
-1.712
-1.68
-1.7563
-1.7059
-1.651
-1.6159
-1.651
-1.6464
-1.5686
-1.5213
-1.5762
