0.91248
0.92926
0.70496
0.27618
-0.11139
-0.28137
-0.3125
-0.27252
-0.1712
-0.079956
-0.10132
-0.18433
-0.18524
-0.1239
-0.1297
-0.18372
-0.16571
-0.098877
-0.10803
-0.16266
-0.14099
-0.072021
-0.083313
-0.13977
-0.11871
-0.050049
-0.060425
-0.11383
-0.085754
-0.010376
-0.014648
-0.063171
-0.032959
0.041504
0.038147
-0.0054932
0.030518
0.10193
0.093384
0.046387
0.079346
0.14313
0.11475
0.047607
0.063477
0.11627
0.083923
0.013733
0.0177
0.045776
-0.013733
-0.1059
-0.112
-0.084229
-0.13214
-0.20233
-0.18799
-0.14862
-0.18768
-0.24231
-0.20782
-0.15564
-0.19073
-0.24475
-0.20691
-0.14832
-0.17883
-0.23193
-0.2005
-0.15198
-0.18677
-0.2298
-0.18372
-0.12726
-0.16388
-0.21851
-0.18097
-0.12878
-0.16083
-0.20325
-0.15839
-0.1059
-0.14282
-0.19379
-0.15808
-0.11566
-0.15747
-0.20172
-0.15533
-0.10559
-0.14648
-0.19257
-0.14893
-0.10498
-0.14832
-0.19318
-0.15076
-0.10956
-0.15869
-0.20447
-0.16052
-0.11688
-0.15778
-0.19043
-0.12665
-0.061951
-0.082703
-0.10406
-0.050659
-0.0042725
-0.035706
-0.057068
-0.0061035
0.016479
-0.050659
-0.1001
-0.065308
-0.052185
-0.12787
-0.18127
-0.14191
-0.11627
-0.17395
-0.21179
-0.16479
-0.13794
-0.19379
-0.22583
-0.17242
-0.14252
-0.19592
-0.21881
-0.15564
-0.12146
-0.17334
-0.19775
-0.12634
-0.057678
-0.020447
0.112
0.39032
0.65186
0.78796
0.87433
0.93933
0.82306
0.4657
0.050659
-0.19226
-0.26825
-0.25513
-0.16937
-0.06012
-0.043335
-0.11902
-0.1474
-0.089111
-0.071411
-0.12939
-0.13947
-0.068665
-0.043945
-0.1004
-0.112
-0.04303
-0.020447
-0.073242
-0.079041
-0.0091553
0.012207
-0.040283
-0.042419
0.030212
0.050049
-0.0018311
0.00030518
0.07843
0.1059
0.060425
0.066223
0.1416
0.16418
0.1181
0.12604
0.1944
0.19745
0.13031
0.12085
0.17395
0.16205
0.083008
0.061951
0.10193
0.070496
-0.025635
-0.054321
-0.014954
-0.038147
-0.12054
-0.13214
-0.079346
-0.092163
-0.16388
-0.16296
-0.099182
-0.10406
-0.17059
-0.16815
-0.10376
-0.10681
-0.16602
-0.15442
-0.089111
-0.097046
-0.16022
-0.14709
-0.075378
-0.077209
-0.13672
-0.12878
-0.069275
-0.081787
-0.1416
-0.12604
-0.062256
-0.076294
-0.14099
-0.12756
-0.063477
-0.077209
-0.13794
-0.12634
-0.067444
-0.082092
-0.13855
-0.11841
-0.059204
-0.081177
-0.14374
-0.12604
-0.066833
-0.086975
-0.14557
-0.12207
-0.06134
-0.081482
-0.13855
-0.11597
-0.061035
-0.086365
-0.14099
-0.10559
-0.030518
-0.036316
-0.075378
-0.035095
0.032654
0.020142
-0.021362
0.012512
0.060425
0.015869
-0.057068
-0.044556
-0.0094604
-0.054626
-0.11902
-0.094299
-0.050049
-0.095825
-0.16113
-0.13641
-0.090027
-0.12756
-0.17883
-0.13947
-0.081177
-0.112
-0.16357
-0.12756
-0.075378
-0.10803
-0.15289
-0.10284
-0.019836
0.021667
0.11322
0.36041
0.65002
0.82977
0.92712
1.0172
0.9668
0.65765
0.21332
-0.10498
-0.2243
-0.23346
-0.16602
-0.049133
0.0088501
-0.045166
-0.098267
-0.059814
-0.020752
-0.065613
-0.10193
-0.04425
0.0094604
-0.030518
-0.071716
-0.028076
0.011902
-0.026855
-0.05188
0.010071
0.056458
0.013428
-0.016479
0.044556
0.091248
0.049744
0.022583
0.08667
0.13977
0.10712
0.08667
0.15015
0.19409
0.15717
0.13855
0.20111
0.23285
0.17303
0.13153
0.17212
0.18951
0.12543
0.082092
0.11536
0.11505
0.028992
-0.030518
-0.0073242
-0.011902
-0.088806
-0.12756
-0.079956
-0.063171
-0.12512
-0.15442
-0.10132
-0.082092
-0.13824
-0.15503
-0.091858
-0.068359
-0.12695
-0.14709
-0.088806
-0.065613
-0.11963
-0.13184
-0.068665
-0.054321
-0.11627
-0.13031
-0.062561
-0.039063
-0.098267
-0.11505
-0.056458
-0.041809
-0.10071
-0.11383
-0.052795
-0.040894
-0.10101
-0.11169
-0.05127
-0.045166
-0.11108
-0.12238
-0.055847
-0.040588
-0.099487
-0.11017
-0.056152
-0.058289
-0.12299
-0.1236
-0.050659
-0.030518
-0.075378
-0.06134
0.014038
0.021057
-0.036011
-0.028992
0.046692
0.056458
-0.0079346
-0.018921
0.025635
0.0030518
-0.080566
-0.095215
-0.045166
-0.059509
-0.13153
-0.13336
-0.073242
-0.084534
-0.15778
-0.16235
-0.10223
-0.10468
-0.16022
-0.14465
-0.077515
-0.084534
-0.14679
-0.1355
-0.066223
-0.062866
-0.093384
-0.0085449
0.19043
0.38696
0.57373
0.81512
1.0327
1.0754
0.92102
0.66589
0.32501
-0.064697
-0.3064
-0.26337
-0.084229
-0.021057
-0.071411
-0.073853
-0.027771
-0.047302
-0.10406
-0.081482
-0.017395
-0.029907
-0.079956
-0.049438
0.01709
0
-0.054016
-0.02533
0.040894
0.022888
-0.033264
-0.0076294
0.057068
0.043945
0.0039673
0.046692
0.11719
0.10132
0.057068
0.10071
0.17456
0.16144
0.11719
0.15656
0.22064
0.19806
0.14709
0.17792
0.22766
0.18768
0.12207
0.13916
0.17365
0.11963
0.041504
0.045471
0.063171
-0.0027466
-0.077209
-0.058289
-0.022583
-0.076294
-0.14099
-0.11169
-0.063477
-0.099487
-0.1474
-0.10864
-0.06073
-0.1004
-0.1474
-0.10681
-0.058289
-0.098267
-0.14771
-0.10773
-0.06012
-0.095825
-0.13519
-0.088806
-0.040894
-0.079346
-0.12024
-0.075378
-0.031738
-0.072632
-0.1123
-0.066833
-0.028076
-0.074463
-0.11261
-0.062866
-0.021667
-0.073242
-0.1181
-0.077209
-0.041809
-0.08728
-0.11932
-0.065308
-0.028992
-0.081177
-0.11932
-0.068359
-0.031433
-0.080261
-0.11475
-0.065613
-0.036621
-0.092773
-0.1236
-0.066223
-0.032043
-0.08728
-0.12024
-0.057373
-0.0045776
-0.032959
-0.042419
0.024109
0.063171
0.021667
0.0073242
0.067444
0.086975
0.0177
-0.023804
0.016174
0.022888
-0.050354
-0.083923
-0.033569
-0.021667
-0.092163
-0.12451
-0.070801
-0.053406
-0.11688
-0.13977
-0.081482
-0.062866
-0.12695
-0.14801
-0.083313
-0.058289
-0.112
-0.12817
-0.06073
-0.012207
0.0057983
0.12939
0.39307
0.64209
0.79193
0.92041
1.033
0.96832
0.66833
0.28351
-0.015564
-0.19165
-0.24506
-0.15167
-0.015259
0.0085449
-0.066528
-0.086975
-0.02533
-0.016479
-0.080566
-0.088501
-0.021973
-0.0064087
-0.062256
-0.059814
0.010986
0.02533
-0.033875
-0.035095
0.033264
0.045471
-0.0045776
0.0036621
0.076904
0.08606
0.030823
0.040283
0.11597
0.13123
0.088501
0.11169
0.19165
0.19958
0.14709
0.16449
0.24109
0.23956
0.17059
0.16907
0.22797
0.21973
0.14709
0.13458
0.16937
0.13031
0.038147
0.016479
0.049133
0.0091553
-0.079346
-0.087891
-0.039063
-0.059509
-0.12878
-0.12177
-0.062866
-0.079041
-0.14435
-0.13641
-0.077209
-0.088196
-0.14221
-0.11841
-0.054932
-0.072021
-0.13245
-0.11353
-0.05188
-0.067444
-0.12451
-0.099792
-0.035706
-0.054626
-0.11505
-0.096741
-0.037842
-0.056458
-0.10956
-0.083618
-0.026245
-0.055237
-0.1178
-0.093689
-0.035095
-0.058289
-0.11353
-0.08667
-0.029602
-0.056763
-0.11444
-0.087891
-0.033569
-0.064392
-0.12054
-0.089417
-0.031738
-0.06134
-0.11688
-0.088196
-0.0354
-0.069275
-0.12482
-0.092468
-0.038147
-0.072632
-0.12573
-0.090942
-0.033875
-0.062256
-0.11078
-0.074768
-0.024109
-0.059509
-0.10773
-0.07019
-0.019226
-0.055542
-0.10345
-0.064392
-0.015259
-0.049133
-0.081177
-0.016785
0.054626
0.028381
-0.012817
0.036316
0.09491
0.063171
0.014648
0.044861
0.073853
0.016785
-0.038452
-0.0048828
0.026855
-0.032349
-0.090332
-0.057068
-0.021973
-0.074463
-0.12054
-0.077209
-0.037537
-0.083313
-0.12207
-0.072327
-0.031738
-0.07782
-0.11261
-0.058899
-0.016479
-0.053406
-0.054932
0.075684
0.24963
0.40649
0.61401
0.88562
1.0629
1.0519
0.91614
0.7016
0.34027
-0.065308
-0.25482
-0.16479
-0.021362
-0.007019
-0.032959
-0.00030518
0.010681
-0.049133
-0.072632
-0.011597
0.019531
-0.030823
-0.049438
0.015869
0.050659
0
-0.020447
0.039978
0.067139
0.015564
0.0018311
0.071716
0.10651
0.059509
0.047302
0.11505
0.14435
0.096741
0.091553
0.16937
0.20752
0.1651
0.16022
0.23346
0.26337
0.21515
0.20447
0.26123
0.26428
0.19226
0.17059
0.2243
0.22369
0.13885
0.095825
0.12573
0.10132
0.0064087
-0.032349
0.0076294
-0.0036621
-0.084534
-0.10773
-0.054932
-0.052795
-0.11963
-0.12512
-0.058594
-0.052185
-0.1178
-0.12573
-0.058899
-0.048523
-0.10742
-0.10956
-0.045471
-0.041809
-0.10468
-0.10437
-0.035095
-0.027771
-0.090637
-0.093384
-0.033875
-0.034485
-0.095825
-0.088806
-0.020142
-0.019531
-0.082703
-0.079041
-0.016174
-0.023499
-0.090942
-0.088501
-0.025024
-0.031128
-0.09491
-0.087891
-0.022888
-0.029907
-0.094299
-0.08606
-0.022278
-0.033264
-0.098267
-0.089111
-0.02655
-0.036621
-0.097656
-0.084839
-0.020142
-0.0354
-0.1004
-0.08606
-0.015259
-0.012817
-0.054016
-0.0177
0.059814
0.054626
0.0030518
0.033569
0.10742
0.090942
0.019226
0.021973
0.069275
0.036011
-0.040283
-0.033264
0.015564
-0.013733
-0.083923
-0.069275
-0.014648
-0.04303
-0.10895
-0.091553
-0.03418
-0.057983
-0.11597
-0.089722
-0.029297
-0.049438
-0.10193
-0.074158
-0.01709
-0.031128
-0.039368
0.089111
0.3064
0.49713
0.68512
0.9259
1.1118
1.1026
0.90576
0.62317
0.25879
-0.10651
-0.27832
-0.17975
-0.010986
0.018616
-0.028992
-0.013123
0.024109
-0.015564
-0.062561
-0.019836
0.033875
0.00061035
-0.042725
0.0030518
0.057068
0.024414
-0.019226
0.025635
0.078735
0.042114
0.0015259
0.050354
0.10651
0.076294
0.041199
0.097351
0.15747
0.12817
0.09491
0.14832
0.20447
0.17822
0.15594
0.22186
0.27649
0.2298
0.18036
0.22369
0.26489
0.21667
0.16449
0.19409
0.21423
0.14465
0.078125
0.091553
0.091248
0.0082397
-0.056458
-0.023499
0.00061035
-0.062866
-0.11322
-0.072327
-0.040894
-0.091553
-0.12512
-0.073547
-0.038452
-0.088501
-0.11932
-0.067139
-0.036926
-0.092468
-0.12268
-0.064697
-0.031128
-0.082703
-0.1123
-0.058899
-0.032043
-0.08667
-0.112
-0.052795
-0.023804
-0.078735
-0.10223
-0.04425
-0.019531
-0.077209
-0.10101
-0.042725
-0.021973
-0.082703
-0.10437
-0.040283
-0.014038
-0.075989
-0.10223
-0.046692
-0.030212
-0.092468
-0.11383
-0.05188
-0.030212
-0.089417
-0.10681
-0.047302
-0.032654
-0.09552
-0.11261
-0.052185
-0.039978
-0.10376
-0.11749
-0.05127
-0.033569
-0.094299
-0.10681
-0.046082
-0.034485
-0.09552
-0.10468
-0.041809
-0.03418
-0.098877
-0.10376
-0.02594
0.0048828
-0.0354
-0.027771
0.043945
0.057678
0.0054932
0.0088501
0.072937
0.070496
-0.0030518
-0.019226
0.02533
0.0057983
-0.075684
-0.087891
-0.032349
-0.041199
-0.1123
-0.11566
-0.055237
-0.06134
-0.13
-0.12909
-0.063782
-0.068359
-0.13336
-0.12726
-0.056458
-0.054321
-0.11749
-0.10437
-0.0091553
0.057983
0.1236
0.32501
0.62622
0.8432
0.93872
1.0126
1.0095
0.76263
0.32043
-0.043335
-0.17731
-0.18372
-0.14191
-0.055237
0.019531
-0.014343
-0.09491
-0.08606
-0.019531
-0.028381
-0.083313
-0.059204
0.0097656
-0.0057983
-0.067749
-0.045776
0.023499
0.010986
-0.046082
-0.019226
0.05188
0.041809
-0.011292
0.018005
0.090942
0.083313
0.036011
0.071106
0.14404
0.1358
0.093079
0.1358
0.21362
0.2063
0.16113
0.18921
0.24567
0.22003
0.16724
0.19653
0.24658
0.20477
0.13123
0.14008
0.16663
0.1004
0.0048828
-0.0012207
0.022888
-0.0354
-0.11169
-0.094604
-0.049438
-0.090637
-0.1535
-0.12878
-0.081482
-0.11841
-0.16724
-0.12482
-0.066528
-0.10406
-0.16174
-0.12665
-0.071716
-0.10223
-0.15076
-0.11292
-0.064087
-0.099792
-0.14252
-0.09552
-0.04425
-0.082703
-0.12939
-0.085754
-0.037231
-0.079346
-0.12756
-0.082703
-0.032654
-0.073242
-0.11841
-0.077209
-0.03418
-0.076599
-0.1178
-0.072632
-0.03418
-0.083923
-0.12909
-0.080872
-0.037842
-0.084229
-0.12451
-0.076294
-0.036316
-0.083313
-0.11993
-0.068054
-0.030212
-0.081482
-0.12054
-0.06958
-0.030212
-0.079346
-0.11292
-0.056763
-0.018921
-0.070496
-0.10651
-0.05188
-0.013733
-0.065002
-0.10162
-0.054626
-0.02655
-0.074463
-0.09613
-0.032349
0.00061035
-0.050354
-0.065002
0.012817
0.059814
0.012512
-0.0073242
0.062866
0.10254
0.047607
0.011597
0.057678
0.073547
0.0027466
-0.039063
0.0012207
0.013428
-0.05249
-0.081787
-0.028992
-0.014954
-0.082703
-0.10956
-0.050049
-0.028687
-0.088501
-0.10803
-0.046082
-0.027161
-0.08606
-0.10162
-0.035095
-0.0082397
-0.04303
0.005188
0.1889
0.39307
0.56946
0.78857
1.0223
1.1209
1.0202
0.8017
0.49866
0.10834
-0.19806
-0.23499
-0.06897
0.032043
-0.0061035
-0.028381
0.01709
0.013733
-0.051575
-0.054016
0.016785
0.029907
-0.030823
-0.031738
0.038757
0.050049
-0.0064087
-0.0048828
0.062866
0.066223
0.0064087
0.014343
0.093079
0.1062
0.05249
0.064087
0.14221
0.1532
0.099487
0.11536
0.19714
0.21454
0.16998
0.19379
0.27466
0.27802
0.21637
0.22278
0.28625
0.27649
0.20386
0.19897
0.24719
0.21606
0.12329
0.10071
0.12878
0.081482
-0.016785
-0.03479
0.0076294
-0.022278
-0.099182
-0.094299
-0.036316
-0.056763
-0.12817
-0.11841
-0.054016
-0.065308
-0.12695
-0.11108
-0.048828
-0.064392
-0.12756
-0.10956
-0.045776
-0.062561
-0.12177
-0.099792
-0.033569
-0.049438
-0.10895
-0.087585
-0.027466
-0.047302
-0.10437
-0.075989
-0.012817
-0.036316
-0.097656
-0.074463
-0.016479
-0.04425
-0.10773
-0.085144
-0.028687
-0.051575
-0.10437
-0.073853
-0.018616
-0.050049
-0.1059
-0.074463
-0.020142
-0.053406
-0.11292
-0.081482
-0.026245
-0.056458
-0.10803
-0.071411
-0.016174
-0.050659
-0.10345
-0.066528
-0.0094604
-0.03479
-0.067444
-0.0079346
0.059204
0.027161
-0.021973
0.028381
0.095215
0.066528
0.011902
0.036621
0.066833
0.0082397
-0.056763
-0.027466
0.012817
-0.03479
-0.090332
-0.058899
-0.022278
-0.072021
-0.12207
-0.080872
-0.040283
-0.089111
-0.13153
-0.080261
-0.028687
-0.069275
-0.10895
-0.059509
-0.014038
-0.052795
-0.059204
0.072327
0.26337
0.42938
0.63416
0.89905
1.0828
1.0852
0.94971
0.72113
0.34088
-0.08667
-0.29053
-0.19897
-0.042419
-0.019226
-0.045166
-0.0091553
0.010986
-0.046692
-0.076904
-0.014038
0.027161
-0.020142
-0.046997
0.011597
0.045776
-0.0076294
-0.036621
0.021362
0.057373
0.010986
-0.0021362
0.066833
0.098572
0.043945
0.02594
0.10193
0.14557
0.099792
0.085144
0.15808
0.19714
0.15289
0.14587
0.22461
0.26489
0.21515
0.19653
0.25482
0.2713
0.20294
0.17181
0.21881
0.21729
0.13367
0.087585
0.11749
0.096741
-0.0024414
-0.048523
-0.0061035
-0.0085449
-0.089111
-0.11993
-0.066528
-0.054016
-0.11414
-0.12543
-0.064087
-0.056152
-0.1236
-0.1358
-0.072021
-0.063782
-0.12421
-0.12909
-0.061951
-0.05188
-0.11749
-0.1236
-0.057983
-0.051575
-0.11353
-0.1181
-0.052795
-0.050049
-0.11353
-0.11169
-0.042419
-0.038757
-0.1062
-0.10834
-0.041504
-0.038452
-0.10284
-0.10437
-0.042725
-0.047302
-0.11597
-0.11566
-0.05188
-0.054932
-0.11749
-0.11078
-0.044556
-0.049438
-0.11566
-0.11078
-0.049438
-0.059509
-0.12543
-0.11627
-0.048218
-0.055847
-0.12207
-0.11353
-0.050049
-0.057983
-0.11963
-0.1059
-0.041504
-0.052795
-0.11078
-0.082092
0.0027466
0.0082397
-0.04303
-0.019531
0.053406
0.049438
-0.0091553
0.0024414
0.052795
0.019531
-0.057068
-0.05249
-0.0033569
-0.033264
-0.10468
-0.093689
-0.04364
-0.076599
-0.1474
-0.1297
-0.071106
-0.09491
-0.15808
-0.13489
-0.074158
-0.096436
-0.1532
-0.1239
-0.06134
-0.084534
-0.13214
-0.066528
0.07782
0.19592
0.35034
0.62103
0.89478
1.0022
0.98053
0.90302
0.68695
0.25909
-0.14587
-0.26703
-0.1709
-0.090332
-0.076294
-0.037537
-0.0061035
-0.062866
-0.12512
-0.08606
-0.026245
-0.058594
-0.10834
-0.065918
-0.0030518
-0.031433
-0.07843
-0.039978
0.012512
-0.017395
-0.053101
-0.0024414
0.052795
0.016174
-0.024414
0.030212
0.093384
0.065002
0.032654
0.091858
0.15564
0.13184
0.10712
0.1709
0.23254
0.19684
0.15778
0.20691
0.25238
0.20355
0.15594
0.19409
0.2243
0.15686
0.089417
0.10681
0.1123
0.02655
-0.045776
-0.022583
-0.0048828
-0.075684
-0.13336
-0.097961
-0.072327
-0.13062
-0.16846
-0.11353
-0.073853
-0.12787
-0.16541
-0.11169
-0.074768
-0.12573
-0.15656
-0.099792
-0.061035
-0.10986
-0.13794
-0.080566
-0.049744
-0.10284
-0.1297
-0.067139
-0.03479
-0.090332
-0.11932
-0.059509
-0.028687
-0.083618
-0.10773
-0.046692
-0.017395
-0.074158
-0.10132
-0.046997
-0.028076
-0.089722
-0.11139
-0.050354
-0.030518
-0.091858
-0.11047
-0.04364
-0.019226
-0.080872
-0.10284
-0.044861
-0.029297
-0.092468
-0.11017
-0.044861
-0.02594
-0.086365
-0.10254
-0.038757
-0.024414
-0.087891
-0.10132
-0.036316
-0.021362
-0.083008
-0.092163
-0.024109
-0.0094604
-0.073853
-0.088501
-0.030518
-0.02533
-0.090027
-0.09552
-0.027161
-0.019836
-0.083923
-0.086365
-0.0079346
0.020447
-0.019531
-0.0057983
0.068359
0.078125
0.022888
0.028381
0.094604
0.08728
0.0088501
-0.0048828
0.046997
0.029297
-0.054016
-0.066528
-0.0097656
-0.0177
-0.088196
-0.090942
-0.031738
-0.041199
-0.10986
-0.10498
-0.037842
-0.044556
-0.11139
-0.10529
-0.038147
-0.04303
-0.10681
-0.090637
0.0039673
0.063782
0.12482
0.32562
0.62561
0.84076
0.93872
1.0217
1.0312
0.80322
0.37903
0.01709
-0.13611
-0.16937
-0.13977
-0.047302
0.034485
0.0042725
-0.076294
-0.068665
-0.0045776
-0.016785
-0.073547
-0.049744
0.016785
0.00091553
-0.058899
-0.034485
0.034485
0.022278
-0.031738
-0.007019
0.056763
0.039978
-0.0085449
0.030212
0.10223
0.084839
0.028992
0.062256
0.13672
0.12878
0.087891
0.13153
0.20569
0.19501
0.1532
0.19287
0.25391
0.22369
0.16266
0.18799
0.23865
0.19653
0.12604
0.13672
0.16327
0.095215
0.0015259
-0.0039673
0.016785
-0.047302
-0.12787
-0.11658
-0.080261
-0.12482
-0.18036
-0.14893
-0.10468
-0.15045
-0.20569
-0.16998
-0.11719
-0.15167
-0.19653
-0.15503
-0.10742
-0.14984
-0.19836
-0.15656
-0.10895
-0.15198
-0.19653
-0.14893
-0.098572
-0.13977
-0.18494
-0.13947
-0.093994
-0.13855
-0.18433
-0.14008
-0.099792
-0.1474
-0.18829
-0.13885
-0.099182
-0.15381
-0.20111
-0.15198
-0.10956
-0.15625
-0.19592
-0.14709
-0.10925
-0.16174
-0.20172
-0.15228
-0.11749
-0.16968
-0.20538
-0.15259
-0.12115
-0.177
-0.21088
-0.15289
-0.11719
-0.17365
-0.20966
-0.15472
-0.12329
-0.18005
-0.21454
-0.16022
-0.13031
-0.18768
-0.21912
-0.16235
-0.13123
-0.18402
-0.20782
-0.15015
-0.12878
-0.19287
-0.22217
-0.16205
-0.13458
-0.19348
-0.2182
-0.16083
-0.14038
-0.20203
-0.22247
-0.15472
-0.11932
-0.16144
-0.1651
-0.091858
-0.063171
-0.11597
-0.12695
-0.064392
-0.054932
-0.13245
-0.16846
-0.12238
-0.11871
-0.19104
-0.21942
-0.17029
-0.17029
-0.24139
-0.26062
-0.20111
-0.19501
-0.26367
-0.27679
-0.21149
-0.19836
-0.2597
-0.26642
-0.2005
-0.19226
-0.2533
-0.23895
-0.11871
-0.0033569
0.10284
0.32898
0.63385
0.8316
0.87738
0.86609
0.74951
0.3949
-0.099487
-0.38849
-0.38147
-0.28442
-0.2475
-0.2121
-0.15991
-0.18372
-0.26398
-0.26398
-0.19165
-0.18616
-0.24628
-0.23987
-0.17426
-0.17822
-0.23895
-0.22491
-0.15076
-0.15411
-0.22034
-0.21118
-0.13947
-0.1358
-0.18738
-0.16663
-0.092163
-0.094299
-0.15228
-0.13367
-0.058289
-0.055542
-0.099182
-0.064697
0.019531
0.020142
-0.034485
-0.014038
0.054626
0.039368
-0.030212
-0.024414
0.02655
-0.0057983
-0.090027
-0.099487
-0.065613
-0.11414
-0.20844
-0.22339
-0.19531
-0.24536
-0.32806
-0.32074
-0.26978
-0.3009
-0.36896
-0.3479
-0.28564
-0.30792
-0.36896
-0.34607
-0.28748
-0.31311
-0.37201
-0.3421
-0.27893
-0.30396
-0.36255
-0.33478
-0.27496
-0.30029
-0.35339
-0.32043
-0.2597
-0.289
-0.34363
-0.3067
-0.24597
-0.27496
-0.3302
-0.29602
-0.23926
-0.27435
-0.33142
-0.29968
-0.2478
-0.28534
-0.33844
-0.29816
-0.24017
-0.27618
-0.33051
-0.2948
-0.24414
-0.2832
-0.33447
-0.29419
-0.24231
-0.28351
-0.33478
-0.29205
-0.24323
-0.28809
-0.3418
-0.30121
-0.2475
-0.28229
-0.32593
-0.28259
-0.23956
-0.28351
-0.32471
-0.27405
-0.22919
-0.27863
-0.32471
-0.27588
-0.22949
-0.27588
-0.31769
-0.2652
-0.21118
-0.24109
-0.26154
-0.19653
-0.14709
-0.18707
-0.21057
-0.14496
-0.10254
-0.16388
-0.22064
-0.18829
-0.16754
-0.23102
-0.27374
-0.22919
-0.20844
-0.27588
-0.31555
-0.26062
-0.22675
-0.28656
-0.32745
-0.27588
-0.24292
-0.29083
-0.31342
-0.25421
-0.22766
-0.2887
-0.31342
-0.2356
-0.16144
-0.13245
-0.014648
0.25818
0.53284
0.69214
0.802
0.89447
0.80383
0.46173
0.037537
-0.24658
-0.36804
-0.38452
-0.29755
-0.17212
-0.14526
-0.22552
-0.26367
-0.20813
-0.18677
-0.2417
-0.2536
-0.18341
-0.15808
-0.21515
-0.22766
-0.16205
-0.14191
-0.19836
-0.20599
-0.13397
-0.1123
-0.16663
-0.16998
-0.095825
-0.072327
-0.12238
-0.1178
-0.039673
-0.018311
-0.069275
-0.061035
0.023804
0.049438
0.00091553
0.011902
0.091858
0.10651
0.040588
0.030823
0.093384
0.090637
0.012512
-0.0097656
0.032349
0.0054932
-0.09491
-0.13397
-0.10193
-0.13275
-0.22766
-0.25238
-0.20691
-0.22491
-0.30243
-0.30548
-0.23895
-0.24109
-0.30853
-0.30548
-0.23804
-0.24078
-0.30243
-0.29266
-0.22461
-0.23224
-0.29968
-0.28839
-0.21637
-0.22003
-0.28259
-0.2713
-0.20111
-0.20721
-0.26978
-0.25726
-0.19135
-0.20294
-0.26794
-0.25391
-0.18677
-0.19806
-0.26062
-0.24414
-0.17792
-0.19379
-0.25787
-0.24078
-0.17609
-0.19226
-0.25269
-0.23071
-0.16541
-0.18646
-0.24933
-0.22797
-0.16418
-0.18677
-0.25024
-0.22552
-0.16174
-0.18555
-0.25055
-0.2298
-0.16632
-0.18463
-0.23773
-0.20874
-0.14984
-0.18036
-0.23956
-0.20905
-0.14526
-0.17334
-0.23163
-0.20111
-0.14008
-0.17029
-0.22888
-0.19684
-0.13611
-0.16327
-0.21729
-0.18127
-0.12268
-0.15472
-0.21027
-0.17639
-0.12207
-0.15594
-0.20752
-0.16724
-0.10773
-0.1355
-0.17365
-0.11627
-0.046387
-0.068359
-0.10406
-0.049438
0.010071
-0.036316
-0.10162
-0.07843
-0.046387
-0.10315
-0.16174
-0.12421
-0.082397
-0.13794
-0.19897
-0.16174
-0.11505
-0.15839
-0.2063
-0.16174
-0.11719
-0.16541
-0.21301
-0.16693
-0.11871
-0.15717
-0.19409
-0.14038
-0.073547
-0.059509
0.018311
0.25146
0.52307
0.70313
0.8371
0.97321
0.979
0.73517
0.35767
0.029297
-0.17761
-0.2771
-0.23132
-0.090027
-0.021973
-0.082703
-0.13458
-0.091553
-0.06012
-0.11353
-0.14069
-0.077209
-0.036011
-0.08606
-0.11475
-0.054626
-0.018921
-0.066223
-0.086365
-0.019836
0.015259
-0.036621
-0.054932
0.016785
0.055237
0.0073242
-0.0073242
0.067444
0.10895
0.063782
0.054932
0.13336
0.17578
0.1355
0.13153
0.20844
0.23804
0.18005
0.16296
0.22675
0.24292
0.16968
0.1355
0.18036
0.17456
0.07843
0.021667
0.043945
0.023499
-0.071106
-0.11078
-0.066833
-0.071106
-0.14679
-0.16846
-0.10895
-0.10101
-0.16876
-0.18158
-0.11566
-0.10742
-0.17303
-0.17975
-0.10864
-0.09552
-0.15961
-0.16846
-0.10315
-0.09491
-0.15656
-0.15656
-0.083618
-0.072327
-0.13397
-0.13702
-0.073242
-0.070496
-0.13214
-0.12665
-0.055847
-0.058594
-0.12848
-0.12665
-0.053711
-0.047913
-0.11444
-0.11719
-0.054932
-0.057678
-0.11902
-0.11169
-0.044556
-0.05249
-0.11963
-0.11292
-0.046997
-0.057983
-0.12634
-0.11597
-0.043335
-0.048523
-0.11475
-0.10681
-0.042114
-0.05188
-0.11749
-0.10468
-0.035095
-0.042725
-0.10315
-0.088501
-0.025635
-0.044556
-0.112
-0.097046
-0.028687
-0.041809
-0.10559
-0.087891
-0.020447
-0.0354
-0.097351
-0.080566
-0.017395
-0.035095
-0.093689
-0.069275
-0.0048828
-0.027771
-0.091858
-0.06897
-0.0057983
-0.029297
-0.092773
-0.068359
-0.0036621
-0.021973
-0.070801
-0.028687
0.049438
0.037537
-0.0091553
0.035095
0.11322
0.099182
0.042114
0.060425
0.098267
0.047607
-0.02655
-0.0067139
0.040894
-0.0018311
-0.067749
-0.038757
0.016785
-0.019531
-0.083008
-0.056763
-0.0073242
-0.041809
-0.090332
-0.045471
0.013428
-0.025635
-0.082397
-0.043945
0.016785
0.0021362
0.007019
0.15594
0.37964
0.5661
0.75012
0.98267
1.1429
1.0971
0.87921
0.59082
0.23682
-0.08728
-0.20691
-0.080261
0.065002
0.056763
-0.0012207
0.023804
0.059509
0.014648
-0.024414
0.02655
0.068359
0.021973
-0.012817
0.050964
0.10529
0.057068
0.013428
0.064697
0.11353
0.074768
0.046692
0.11017
0.15869
0.11292
0.081482
0.14435
0.1947
0.15442
0.13519
0.21118
0.26855
0.23163
0.21057
0.28259
0.33569
0.29327
0.26306
0.31433
0.34149
0.28076
0.24536
0.29144
0.30426
0.22278
0.16296
0.1828
0.16602
0.063477
-0.0021362
0.029297
0.031433
-0.046692
-0.085449
-0.032654
-0.012207
-0.07782
-0.10803
-0.048828
-0.023499
-0.081787
-0.10254
-0.04425
-0.025024
-0.08667
-0.10345
-0.036011
-0.012817
-0.074158
-0.091248
-0.02533
-0.0045776
-0.063782
-0.076599
-0.010681
0.005188
-0.057983
-0.06897
0.00091553
0.01709
-0.048218
-0.061646
0.0057983
0.019226
-0.045776
-0.057983
0.0064087
0.014343
-0.052795
-0.059204
0.010986
0.021057
-0.045471
-0.053406
0.015259
0.021362
-0.049438
-0.057983
0.0073242
0.012207
-0.054626
-0.057373
0.011902
0.018311
-0.046692
-0.049133
0.014038
0.012207
-0.055542
-0.053406
0.016479
0.019531
-0.046387
-0.046082
0.018921
0.015564
-0.045776
-0.033264
0.048828
0.063171
0.015259
0.03418
0.1123
0.11902
0.065613
0.076294
0.13245
0.10437
0.018921
0.014343
0.07019
0.05188
-0.023193
-0.022888
0.031738
0.011597
-0.057983
-0.048828
0.010681
-0.0085449
-0.074158
-0.055237
0.011902
-0.0048828
-0.067444
-0.04425
0.026855
0.012207
-0.046387
-0.00030518
0.13489
0.2475
0.38391
0.65033
0.94788
1.0944
1.1047
1.0629
0.88593
0.47546
0.018921
-0.17517
-0.11719
-0.031433
-0.00030518
0.051575
0.098267
0.050659
-0.018616
0.010681
0.075684
0.050049
-0.007019
0.025635
0.090027
0.067139
0.014648
0.048218
0.10559
0.07843
0.033569
0.082397
0.14771
0.11688
0.065613
0.10986
0.17731
0.15411
0.10956
0.15686
0.2243
0.20111
0.16724
0.22858
0.30273
0.28168
0.23926
0.28534
0.33844
0.29602
0.24139
0.27832
0.32074
0.26703
0.19531
0.20599
0.21362
0.12695
0.040588
0.053406
0.074768
0.0061035
-0.062866
-0.037842
-0.0094604
-0.065002
-0.11414
-0.067444
-0.022888
-0.06958
-0.11353
-0.067139
-0.027771
-0.077515
-0.11597
-0.065308
-0.023193
-0.068359
-0.10071
-0.046082
-0.010376
-0.067444
-0.10529
-0.048218
-0.0079346
-0.059509
-0.093689
-0.036621
-0.00061035
-0.056458
-0.089722
-0.031433
0.0018311
-0.056458
-0.089722
-0.027771
0.007019
-0.053406
-0.088501
-0.029602
-0.00091553
-0.061646
-0.093384
-0.031433
0.0018311
-0.058289
-0.087891
-0.027161
-0.00030518
-0.061646
-0.090027
-0.027771
-0.00061035
-0.06073
-0.085449
-0.02594
-0.0057983
-0.071716
-0.098267
-0.037231
-0.015259
-0.073547
-0.08728
-0.012207
0.024719
-0.014038
-0.011292
0.064697
0.089417
0.0354
0.029602
0.09491
0.097046
0.013428
-0.018616
0.032349
0.032043
-0.044556
-0.07019
-0.017395
-0.016174
-0.08667
-0.097046
-0.03418
-0.035095
-0.112
-0.12451
-0.055847
-0.042114
-0.1001
-0.099792
-0.028687
-0.021667
-0.084534
-0.074768
0.031433
0.12207
0.20935
0.42938
0.74463
0.95612
1.015
1.0364
0.97961
0.69366
0.23315
-0.097961
-0.16937
-0.13
-0.093079
-0.027466
0.047302
0.028076
-0.054932
-0.055847
0.013733
0.014038
-0.048523
-0.041504
0.026245
0.022583
-0.03479
-0.016174
0.057068
0.053101
-0.0094604
0.0064087
0.079651
0.077209
0.022888
0.045471
0.11963
0.11627
0.064392
0.09552
0.17517
0.1767
0.12939
0.16327
0.24353
0.24017
0.19379
0.22919
0.30304
0.28564
0.22003
0.23987
0.29999
0.26794
0.18372
0.177
0.20477
0.14343
0.042419
0.032349
0.062256
0.0094604
-0.07843
-0.074768
-0.030518
-0.068665
-0.13397
-0.10651
-0.046387
-0.073853
-0.13153
-0.10132
-0.043945
-0.077515
-0.13947
-0.10956
-0.049438
-0.079956
-0.13275
-0.09491
-0.030212
-0.058594
-0.11475
-0.082397
-0.025024
-0.054626
-0.10162
-0.06073
-0.0064087
-0.043945
-0.09613
-0.055847
0.0012207
-0.035095
-0.083618
-0.039978
0.011292
-0.033875
-0.090942
-0.05127
0.00030518
-0.039978
-0.08667
-0.042114
0.0061035
-0.038757
-0.086365
-0.036621
0.012817
-0.035706
-0.08728
-0.041809
0.007019
-0.037231
-0.082092
-0.032349
0.014038
-0.031128
-0.076599
-0.028992
0.019531
-0.0094604
-0.023193
0.049438
0.097046
0.050049
0.022278
0.090942
0.13702
0.076294
0.021362
0.057678
0.078125
0.0088501
-0.040283
0.0024414
0.02594
-0.041199
-0.085754
-0.036011
-0.0088501
-0.071411
-0.11078
-0.055542
-0.020447
-0.071716
-0.097656
-0.039673
-0.012512
-0.075073
-0.10376
-0.039063
0.0067139
-0.0097656
0.05127
0.26337
0.51056
0.69733
0.88196
1.0632
1.1002
0.90454
0.58838
0.25635
-0.044556
-0.22858
-0.1944
-0.025635
0.047302
-0.020142
-0.058594
-0.0036621
0.016785
-0.043335
-0.054016
0.018616
0.042114
-0.021362
-0.038147
0.030518
0.054626
-0.0027466
-0.010376
0.060425
0.079346
0.020447
0.016785
0.093994
0.11597
0.06012
0.058899
0.13611
0.15747
0.10529
0.11322
0.19989
0.2301
0.18433
0.19806
0.28351
0.30426
0.24475
0.23651
0.29327
0.28564
0.20966
0.19989
0.25482
0.2359
0.13885
0.10132
0.12878
0.089417
-0.015564
-0.048218
-0.011292
-0.036926
-0.11566
-0.11322
-0.046387
-0.056152
-0.13275
-0.13397
-0.065308
-0.065918
-0.12756
-0.1178
-0.052185
-0.062866
-0.1297
-0.11627
-0.043945
-0.047913
-0.10986
-0.09552
-0.028992
-0.043335
-0.11047
-0.093689
-0.023499
-0.035095
-0.1001
-0.083313
-0.011597
-0.024414
-0.090027
-0.075989
-0.013428
-0.030518
-0.092468
-0.070801
-0.0076294
-0.031433
-0.098877
-0.075989
-0.0076294
-0.027466
-0.089417
-0.065308
0.0012207
-0.022583
-0.089417
-0.06958
-0.0076294
-0.031738
-0.093994
-0.066528
0.0018311
-0.0061035
-0.044861
0.0024414
0.076294
0.056152
0.0061035
0.048523
0.11749
0.085449
0.018311
0.036926
0.084229
0.037842
-0.039978
-0.02533
0.018311
-0.022888
-0.085144
-0.058289
-0.012817
-0.057373
-0.1181
-0.083618
-0.031433
-0.070496
-0.12451
-0.082703
-0.022583
-0.054932
-0.1059
-0.065613
-0.0082397
-0.026855
-0.021057
0.13184
0.35858
0.55023
0.73975
0.97229
1.1246
1.0602
0.81726
0.50629
0.13855
-0.18219
-0.28473
-0.14374
0.0085449
0.0021362
-0.050659
-0.020447
0.014343
-0.035095
-0.073547
-0.015259
0.036316
-0.0088501
-0.047913
0.0067139
0.054626
0.010986
-0.021973
0.037537
0.083008
0.036621
0.0048828
0.06897
0.11749
0.073547
0.046082
0.10803
0.1532
0.10986
0.092468
0.1712
0.22491
0.18433
0.16479
0.23712
0.28259
0.23407
0.2063
0.26581
0.29541
0.23254
0.19318
0.23651
0.24323
0.15625
0.091553
0.10956
0.090942
-0.0073242
-0.056152
-0.0076294
0.0064087
-0.070801
-0.11139
-0.061035
-0.043945
-0.11017
-0.13641
-0.076599
-0.054321
-0.11627
-0.13123
-0.062866
-0.042114
-0.10864
-0.13184
-0.067139
-0.045166
-0.10498
-0.11719
-0.048523
-0.028992
-0.094299
-0.11169
-0.047607
-0.031433
-0.091858
-0.099792
-0.031128
-0.01709
-0.081787
-0.092163
-0.027466
-0.018921
-0.085449
-0.091248
-0.020142
-0.010376
-0.078125
-0.089111
-0.02594
-0.021973
-0.088501
-0.091858
-0.024414
-0.020752
-0.089111
-0.091858
-0.023193
-0.0177
-0.082092
-0.082703
-0.014954
-0.011597
-0.066223
-0.045166
0.043335
0.055847
-0.0021362
0.010681
0.090027
0.093384
0.023499
0.01709
0.069275
0.048523
-0.035706
-0.046082
0.0057983
-0.013123
-0.090637
-0.091553
-0.03418
-0.05127
-0.12085
-0.112
-0.047607
-0.063477
-0.1355
-0.12543
-0.057373
-0.066833
-0.12787
-0.112
-0.044556
-0.055237
-0.092468
-0.007019
0.18646
0.36316
0.53711
0.78186
1.0086
1.0596
0.94116
0.74066
0.43518
0.019226
-0.27496
-0.27252
-0.10651
-0.035095
-0.064697
-0.047913
-0.0073242
-0.048218
-0.11414
-0.079956
-0.0073242
-0.028076
-0.087891
-0.061035
0
-0.024414
-0.080566
-0.046082
0.021362
0.0012207
-0.048218
-0.011902
0.05127
0.029602
-0.013428
0.03479
0.10345
0.079041
0.032959
0.080261
0.15076
0.13031
0.092163
0.14679
0.21759
0.19592
0.1532
0.19867
0.25269
0.20996
0.14954
0.177
0.21271
0.14801
0.067139
0.073547
0.086975
0.0079346
-0.077515
-0.065002
-0.041199
-0.10376
-0.16602
-0.12848
-0.085754
-0.13672
-0.19104
-0.14954
-0.10315
-0.14709
-0.19165
-0.14435
-0.099792
-0.14496
-0.1825
-0.12695
-0.081787
-0.13153
-0.17578
-0.12543
-0.081787
-0.13031
-0.16449
-0.10559
-0.062256
-0.11536
-0.15869
-0.10864
-0.068054
-0.11414
-0.14221
-0.084839
-0.049438
-0.1062
-0.14038
-0.081482
-0.046997
-0.1059
-0.14008
-0.080872
-0.046692
-0.10834
-0.14557
-0.088806
-0.054016
-0.10651
-0.13184
-0.069885
-0.045776
-0.11322
-0.14252
-0.074768
-0.040588
-0.10193
-0.13153
-0.069275
-0.042419
-0.10468
-0.12909
-0.061646
-0.0354
-0.097961
-0.12054
-0.054321
-0.029602
-0.094604
-0.11536
-0.047607
-0.025635
-0.088196
-0.096741
-0.0085449
0.031128
-0.022278
-0.032959
0.044556
0.076294
0.021973
0.011902
0.075684
0.07782
-0.007019
-0.036011
0.01709
0.012207
-0.073242
-0.096741
-0.032043
-0.024109
-0.095825
-0.11017
-0.046997
-0.046082
-0.12024
-0.12634
-0.050964
-0.042114
-0.11078
-0.11414
-0.040283
-0.033569
-0.097046
-0.073853
0.06134
0.17914
0.28687
0.51697
0.81909
0.9906
0.99548
0.94879
0.81635
0.46295
0.010986
-0.21667
-0.16815
-0.072937
-0.061646
-0.04364
0.0061035
-0.015259
-0.084839
-0.069885
0.0042725
-0.0039673
-0.072937
-0.059509
0.01709
0.012817
-0.05188
-0.036621
0.036926
0.029602
-0.032043
-0.010071
0.07019
0.067444
0.0082397
0.032043
0.11139
0.10803
0.053711
0.084839
0.16937
0.17059
0.12177
0.15442
0.2359
0.23285
0.18066
0.21027
0.27893
0.25482
0.1825
0.1944
0.24963
0.21576
0.13458
0.12848
0.15228
0.082397
-0.024414
-0.036011
-0.007019
-0.062561
-0.14679
-0.13367
-0.080872
-0.11719
-0.18433
-0.159
-0.10101
-0.13123
-0.18707
-0.15015
-0.088806
-0.12268
-0.18188
-0.14496
-0.082397
-0.11414
-0.16968
-0.12787
-0.063171
-0.093689
-0.14648
-0.1059
-0.047913
-0.08667
-0.14343
-0.10345
-0.046997
-0.086365
-0.14038
-0.09552
-0.035706
-0.074158
-0.13245
-0.098267
-0.046082
-0.083923
-0.13123
-0.091858
-0.047607
-0.090942
-0.13611
-0.089111
-0.044556
-0.094299
-0.14496
-0.098572
-0.047607
-0.091553
-0.13641
-0.089111
-0.04364
-0.087891
-0.13
-0.083923
-0.046387
-0.1004
-0.14252
-0.08667
-0.037842
-0.084229
-0.12329
-0.073547
-0.034485
-0.087585
-0.12268
-0.063171
-0.013123
-0.049133
-0.066833
0.0054932
0.055237
0.0057983
-0.024414
0.037842
0.07782
0.020752
-0.01709
0.032043
0.056458
-0.01709
-0.068359
-0.025635
-0.0042725
-0.071106
-0.10895
-0.054016
-0.027771
-0.094604
-0.13611
-0.08606
-0.058899
-0.11139
-0.13062
-0.065002
-0.035706
-0.09491
-0.1178
-0.050964
-0.0097656
-0.025024
0.046387
0.26489
0.50598
0.68512
0.87006
1.0608
1.1084
0.91888
0.60333
0.25757
-0.064392
-0.26154
-0.22675
-0.050659
0.029602
-0.027466
-0.056763
-0.0036621
0.0042725
-0.061951
-0.074463
-0.007019
0.0091553
-0.05249
-0.057373
0.015869
0.033264
-0.028076
-0.032043
0.037842
0.050964
-0.0076294
-0.0036621
0.07782
0.097961
0.041199
0.043335
0.11658
0.12939
0.075989
0.091858
0.18036
0.20416
0.15594
0.16907
0.24567
0.25177
0.18829
0.19257
0.26031
0.25299
0.17334
0.16357
0.21606
0.19135
0.091553
0.058289
0.092773
0.056152
-0.045166
-0.072937
-0.033264
-0.057983
-0.13519
-0.13367
-0.07019
-0.083008
-0.15625
-0.15289
-0.085754
-0.093079
-0.159
-0.14923
-0.083008
-0.093384
-0.15472
-0.13763
-0.064392
-0.074158
-0.13885
-0.12421
-0.056763
-0.071716
-0.13519
-0.1181
-0.050659
-0.066833
-0.13092
-0.11169
-0.044861
-0.061646
-0.12421
-0.10223
-0.038452
-0.06134
-0.12726
-0.1059
-0.042725
-0.064697
-0.12787
-0.10681
-0.048218
-0.079651
-0.14648
-0.12207
-0.058899
-0.082397
-0.13977
-0.10742
-0.042419
-0.065613
-0.12054
-0.085754
-0.023499
-0.051575
-0.10284
-0.055237
0.025024
0.017395
-0.016479
0.041199
0.12115
0.10895
0.070801
0.11841
0.17609
0.13214
0.062866
0.082703
0.11658
0.057068
-0.016174
0.0033569
0.041199
-0.0177
-0.090027
-0.065308
-0.024414
-0.072021
-0.13214
-0.10468
-0.06958
-0.12238
-0.17334
-0.12177
-0.061951
-0.097961
-0.14526
-0.099182
-0.037231
-0.037842
0.0067139
0.20264
0.46265
0.66467
0.84442
1.04
1.1307
0.98114
0.66772
0.32471
0.018005
-0.18646
-0.19409
-0.031738
0.082703
0.044556
-0.012817
0.018311
0.046692
-0.0067139
-0.04364
0.007019
0.038757
-0.020447
-0.056458
0.0061035
0.05249
0.0039673
-0.027771
0.03418
0.075989
0.02655
-0.0030518
0.058899
0.097351
0.047607
0.028992
0.10681
0.15747
0.11047
0.087585
0.16022
0.21088
0.17334
0.16449
0.24414
0.29053
0.24292
0.2179
0.27679
0.29907
0.23376
0.19806
0.2417
0.23895
0.14313
0.080261
0.10284
0.085144
-0.015869
-0.071716
-0.033264
-0.028992
-0.10284
-0.13123
-0.073853
-0.061646
-0.12817
-0.14862
-0.083618
-0.067749
-0.13428
-0.15198
-0.087891
-0.073547
-0.13641
-0.14526
-0.072327
-0.055237
-0.11993
-0.13153
-0.062256
-0.046997
-0.10803
-0.1123
-0.039673
-0.030518
-0.097961
-0.10651
-0.038147
-0.030518
-0.098572
-0.10559
-0.040283
-0.039063
-0.10773
-0.10742
-0.033875
-0.029297
-0.10101
-0.10498
-0.036316
-0.033569
-0.10345
-0.10254
-0.03479
-0.037842
-0.11322
-0.11719
-0.046692
-0.042419
-0.10437
-0.1004
-0.032959
-0.041199
-0.11139
-0.10468
-0.02533
-0.010681
-0.055542
-0.029602
0.048218
0.046387
-0.010986
0.012512
0.089722
0.076599
-0.0048828
-0.010376
0.041809
0.011902
-0.073853
-0.074768
-0.018311
-0.040588
-0.11658
-0.1062
-0.042114
-0.065308
-0.14069
-0.13031
-0.062256
-0.075684
-0.13855
-0.11963
-0.052185
-0.068054
-0.12817
-0.10376
-0.030518
-0.019836
-0.0030518
0.16418
0.43549
0.65186
0.80109
0.95856
1.0498
0.91522
0.59143
0.24475
-0.031128
-0.21423
-0.24719
-0.112
0.019531
0.0018311
-0.072937
-0.057983
-0.0048828
-0.03418
-0.088806
-0.050659
0.012207
-0.013428
-0.066223
-0.025024
0.038452
0.010986
-0.039673
0.0012207
0.060425
0.025635
-0.022583
0.026245
0.093994
0.065918
0.021973
0.076294
0.14832
0.12482
0.085754
0.14252
0.21271
0.19012
0.15656
0.21576
0.27863
0.24048
0.18951
0.23041
0.27649
0.22736
0.1712
0.20355
0.22888
0.15015
0.060425
0.066223
0.074768
-0.0039673
-0.077209
-0.053406
-0.030212
-0.096436
-0.15137
-0.10651
-0.064697
-0.11963
-0.16602
-0.11505
-0.071716
-0.12268
-0.16754
-0.11841
-0.077209
-0.12665
-0.16449
-0.11078
-0.072021
-0.12177
-0.15259
-0.095215
-0.061646
-0.11963
-0.15198
-0.086975
-0.044861
-0.10071
-0.13672
-0.083008
-0.052795
-0.112
-0.14465
-0.084534
-0.053406
-0.11475
-0.14679
-0.084839
-0.052185
-0.1123
-0.14465
-0.084839
-0.053101
-0.10925
-0.13428
-0.076904
-0.060425
-0.12909
-0.1535
-0.084229
-0.053101
-0.11261
-0.12909
-0.047302
-0.0036621
-0.050049
-0.059509
0.016174
0.048523
-0.0067139
-0.025024
0.033569
0.036926
-0.046997
-0.084229
-0.032349
-0.023499
-0.097961
-0.12451
-0.075073
-0.076599
-0.15167
-0.16876
-0.10498
-0.098267
-0.16998
-0.17822
-0.10132
-0.082092
-0.14557
-0.15686
-0.091553
-0.083618
-0.14618
-0.13428
-0.019531
0.081482
0.1712
0.38879
0.70099
0.90942
0.95764
0.96436
0.89233
0.59204
0.12207
-0.19775
-0.2417
-0.1767
-0.13367
-0.074768
-0.0057983
-0.028687
-0.11108
-0.10834
-0.031738
-0.030823
-0.097046
-0.088196
-0.0094604
-0.0076294
-0.07019
-0.059509
0.015564
0.015869
-0.044556
-0.027771
0.047607
0.045166
-0.014648
0.007019
0.087891
0.089111
0.035095
0.064392
0.14862
0.15045
0.097961
0.13275
0.22186
0.22522
0.17181
0.19928
0.27344
0.25726
0.18463
0.19348
0.25177
0.22278
0.14191
0.13733
0.16937
0.11139
0.0094604
-0.0039673
0.027771
-0.023499
-0.10834
-0.097046
-0.042114
-0.076599
-0.14832
-0.12695
-0.065613
-0.094299
-0.15656
-0.12573
-0.058594
-0.08606
-0.14771
-0.11688
-0.052185
-0.079651
-0.13824
-0.10223
-0.036621
-0.068359
-0.13031
-0.096436
-0.031738
-0.059509
-0.11627
-0.085449
-0.030212
-0.064087
-0.11444
-0.068665
-0.0067139
-0.046692
-0.11139
-0.078125
-0.019531
-0.050049
-0.098877
-0.06012
-0.012817
-0.061951
-0.11902
-0.069885
-0.0030518
-0.037537
-0.088196
-0.039673
0.027771
0.0036621
-0.036316
0.014343
0.076294
0.047913
0.010376
0.053406
0.08667
0.023499
-0.03479
0.0027466
0.038452
-0.02655
-0.092468
-0.058594
-0.022888
-0.07782
-0.12482
-0.076904
-0.0354
-0.091553
-0.14008
-0.089417
-0.039978
-0.082397
-0.1178
-0.062256
-0.014038
-0.057983
-0.095215
-0.039368
0.027771
0.067749
0.20721
0.50903
0.8017
0.94818
1.0226
1.0733
0.93719
0.53986
0.087585
-0.1474
-0.18433
-0.159
-0.09613
-0.0048828
0.017395
-0.055237
-0.090027
-0.02594
0.013123
-0.037842
-0.061035
0.0033569
0.035706
-0.016174
-0.032043
0.039063
0.066833
-0.00030518
-0.023804
0.050354
0.090942
0.039673
0.022278
0.09491
0.12848
0.074158
0.06012
0.13885
0.18005
0.13367
0.12878
0.21362
0.25787
0.2124
0.20447
0.27039
0.29053
0.2298
0.21851
0.28564
0.29358
0.20966
0.16998
0.2121
0.19684
0.095825
0.047607
0.081787
0.068359
-0.021667
-0.054626
-0.0039673
-0.0030518
-0.075073
-0.086975
-0.02594
-0.025024
-0.099487
-0.11322
-0.052185
-0.050964
-0.11475
-0.1059
-0.013733
0.0085449
-0.058899
-0.078125
-0.026855
-0.028992
-0.092163
-0.090637
-0.028381
-0.036316
-0.10712
-0.10071
-0.023499
-0.019531
-0.088196
-0.087585
-0.022278
-0.029297
-0.098267
-0.09552
-0.03418
-0.054626
-0.13641
-0.12909
-0.05127
-0.048828
-0.112
-0.099792
-0.019531
-0.010681
-0.068054
-0.052795
0.021057
0.026855
-0.014648
0.021667
0.10834
0.10895
0.047607
0.055237
0.10925
0.075378
-0.0091553
-0.007019
0.046997
0.010071
-0.08728
-0.10071
-0.050964
-0.074768
-0.14801
-0.14679
-0.10193
-0.12787
-0.19135
-0.16815
-0.10925
-0.13885
-0.20264
-0.17456
-0.10437
-0.12451
-0.18311
-0.14618
-0.045471
0.005188
0.07019
0.28137
0.57556
0.77911
0.89539
1.0052
1.0056
0.73792
0.29266
-0.07019
-0.22888
-0.27008
-0.22339
-0.10315
-0.018921
-0.061646
-0.13153
-0.10345
-0.046082
-0.080872
-0.13428
-0.094299
-0.036621
-0.079956
-0.14435
-0.10712
-0.039368
-0.065613
-0.11688
-0.082092
-0.024719
-0.051575
-0.094299
-0.049744
0.0048828
-0.02655
-0.059814
-0.00091553
0.058594
0.025024
-0.010986
0.057678
0.13428
0.112
0.079956
0.13916
0.1944
0.14832
0.09552
0.13245
0.16357
0.10071
0.040588
0.073853
0.093994
0.0073242
-0.075073
-0.058594
-0.047302
-0.13092
-0.20477
-0.17395
-0.13885
-0.18829
-0.23041
-0.18951
-0.16937
-0.23529
-0.26947
-0.20142
-0.15533
-0.21027
-0.24872
-0.18677
-0.14221
-0.19409
-0.2301
-0.17242
-0.13245
-0.18524
-0.21637
-0.15411
-0.12177
-0.17975
-0.21027
-0.14343
-0.10284
-0.15442
-0.18372
-0.12421
-0.097656
-0.15808
-0.18097
-0.11322
-0.085449
-0.14923
-0.17548
-0.10345
-0.068054
-0.12634
-0.1535
-0.090637
-0.065308
-0.12695
-0.14771
-0.081787
-0.059204
-0.12451
-0.14465
-0.074158
-0.047302
-0.10681
-0.112
-0.023804
0.018616
-0.02655
-0.027771
0.055542
0.080566
0.010986
-0.015564
0.041504
0.05127
-0.0177
-0.037537
0.015564
0.007019
-0.080261
-0.10895
-0.05127
-0.046387
-0.11444
-0.12665
-0.063782
-0.063171
-0.13733
-0.14618
-0.075684
-0.067444
-0.13672
-0.14465
-0.074158
-0.061646
-0.12177
-0.10895
0.0033569
0.10101
0.19501
0.42145
0.72906
0.91644
0.93964
0.92468
0.8374
0.5307
0.077515
-0.20264
-0.21545
-0.14435
-0.11597
-0.06958
-0.0042725
-0.021667
-0.09552
-0.086975
-0.010376
-0.013123
-0.077515
-0.062866
0.012817
0.011597
-0.047913
-0.024109
0.055847
0.049133
-0.018921
-0.0018311
0.076599
0.075073
0.016785
0.04303
0.12329
0.1181
0.059204
0.089111
0.17548
0.17822
0.13
0.1651
0.24902
0.24719
0.19348
0.22064
0.28656
0.26184
0.19348
0.21393
0.27344
0.23682
0.14893
0.14435
0.17548
0.11261
0.010681
0
0.033264
-0.019836
-0.10498
-0.092163
-0.036926
-0.06897
-0.13306
-0.10864
-0.054626
-0.090027
-0.15015
-0.11047
-0.041809
-0.074158
-0.14313
-0.11658
-0.058289
-0.085449
-0.13519
-0.091553
-0.028687
-0.064392
-0.12451
-0.087585
-0.025024
-0.056763
-0.11108
-0.07019
-0.011902
-0.050659
-0.10742
-0.07019
-0.015869
-0.054932
-0.10681
-0.064392
-0.013428
-0.059814
-0.11505
-0.06958
-0.016174
-0.059814
-0.11292
-0.06958
-0.021973
-0.072632
-0.12695
-0.079041
-0.022888
-0.055237
-0.083923
-0.016479
0.046997
0.0088501
-0.029602
0.03479
0.095825
0.057068
0.011292
0.049744
0.072937
-0.0033569
-0.068359
-0.027771
0.0064087
-0.054626
-0.10925
-0.06897
-0.0354
-0.090942
-0.13184
-0.082703
-0.053406
-0.11505
-0.15228
-0.090942
-0.048828
-0.098572
-0.12909
-0.070496
-0.038757
-0.093079
-0.099487
0.027771
0.18494
0.31708
0.53162
0.83038
1.0318
1.0434
0.95978
0.80261
0.46234
0
-0.2655
-0.22186
-0.089722
-0.059814
-0.061035
-0.0085449
0.0033569
-0.067139
-0.090942
-0.021362
0.0085449
-0.050354
-0.068054
0.0036621
0.033264
-0.025024
-0.041199
0.028381
0.052795
-0.0088501
-0.020752
0.054321
0.081787
0.027161
0.021362
0.1001
0.12604
0.06897
0.067749
0.1535
0.18524
0.13397
0.13763
0.22339
0.24841
0.1889
0.18311
0.25574
0.26672
0.19592
0.1828
0.24384
0.23407
0.13702
0.097046
0.13184
0.10345
-0.0021362
-0.039673
0.0076294
-0.0039673
-0.08667
-0.10223
-0.044556
-0.047607
-0.11902
-0.1178
-0.044556
-0.044861
-0.11414
-0.11108
-0.03418
-0.027771
-0.094299
-0.093384
-0.028076
-0.035095
-0.10437
-0.095825
-0.021667
-0.02594
-0.093994
-0.084839
-0.012512
-0.016785
-0.081177
-0.065308
0.0097656
-0.0012207
-0.074463
-0.063782
0.010376
0.0024414
-0.069885
-0.065308
-0.0015259
-0.013733
-0.079041
-0.063477
0.0082397
0.0039673
-0.04425
-0.0061035
0.076904
0.065613
0.0018311
0.029297
0.11169
0.10468
0.040283
0.051575
0.10254
0.065613
-0.01709
-0.010681
0.040588
0.0012207
-0.07843
-0.064697
-0.0045776
-0.033569
-0.10193
-0.082092
-0.022888
-0.050659
-0.11475
-0.08606
-0.018616
-0.039673
-0.093689
-0.060425
0
-0.031433
-0.083008
-0.011902
0.13916
0.25757
0.40955
0.68481
0.96008
1.0648
1.0422
0.95947
0.7254
0.27496
-0.14252
-0.25299
-0.14404
-0.061035
-0.045776
0.0027466
0.041199
-0.015564
-0.080872
-0.040283
0.022278
-0.011597
-0.059814
-0.013428
0.045776
0.0067139
-0.041504
0.0073242
0.066223
0.029602
-0.01709
0.033569
0.091858
0.054932
0.015259
0.075989
0.14038
0.1059
0.064697
0.11749
0.17487
0.1416
0.11108
0.17639
0.23529
0.19501
0.15778
0.21057
0.25116
0.19562
0.14801
0.19653
0.22827
0.15717
0.091858
0.11658
0.11932
0.020752
-0.058594
-0.030212
-0.010681
-0.088806
-0.15076
-0.10986
-0.075073
-0.13092
-0.16998
-0.1178
-0.087891
-0.14984
-0.18616
-0.12695
-0.093384
-0.15503
-0.19043
-0.12939
-0.094299
-0.15167
-0.18097
-0.12115
-0.090027
-0.14526
-0.16205
-0.089722
-0.063171
-0.13947
-0.17792
-0.11414
-0.076599
-0.13062
-0.15778
-0.10437
-0.091858
-0.159
-0.17609
-0.10284
-0.078125
-0.14557
-0.16754
-0.097656
-0.074158
-0.13672
-0.14252
-0.052185
-0.012207
-0.073242
-0.097656
-0.030518
-0.0015259
-0.055542
-0.068359
-0.010986
-0.011902
-0.09613
-0.12634
-0.076599
-0.083618
-0.16937
-0.19562
-0.13336
-0.12726
-0.19958
-0.21851
-0.16296
-0.16754
-0.24231
-0.24475
-0.16541
-0.15717
-0.23346
-0.24597
-0.17334
-0.15991
-0.22491
-0.22247
-0.11871
-0.024414
0.067139
0.29541
0.61371
0.8255
0.88562
0.9137
0.86365
0.56915
0.088196
-0.25085
-0.31799
-0.27374
-0.24109
-0.18158
-0.10925
-0.12909
-0.2066
-0.19531
-0.11963
-0.12634
-0.19958
-0.18951
-0.11353
-0.12054
-0.19287
-0.18463
-0.11017
-0.11261
-0.17609
-0.16052
-0.086365
-0.088196
-0.13885
-0.10895
-0.032043
-0.044861
-0.10895
-0.075378
0.018921
0.022583
-0.03479
-0.010376
0.069885
0.066528
0.010986
0.035095
0.10437
0.08606
0.020447
0.039673
0.10223
0.073853
-0.0057983
-0.011292
0.010376
-0.061035
-0.16449
-0.16876
-0.13092
-0.18158
-0.26917
-0.2597
-0.20782
-0.24567
-0.31799
-0.29816
-0.23987
-0.2655
-0.31891
-0.27924
-0.21484
-0.24597
-0.30457
-0.26215
-0.19043
-0.2179
-0.27954
-0.24872
-0.19043
-0.22369
-0.27832
-0.23743
-0.17426
-0.20813
-0.26947
-0.23804
-0.18555
-0.22064
-0.26764
-0.21912
-0.16235
-0.20203
-0.2533
-0.19958
-0.12482
-0.1416
-0.17242
-0.1178
-0.065918
-0.11261
-0.15778
-0.10101
-0.04425
-0.092468
-0.15137
-0.11932
-0.095825
-0.17212
-0.24109
-0.2005
-0.15503
-0.21088
-0.26672
-0.22491
-0.18829
-0.24414
-0.28992
-0.23529
-0.18707
-0.23865
-0.28564
-0.23621
-0.19562
-0.24506
-0.27557
-0.21423
-0.16815
-0.20264
-0.17212
0.025024
0.28137
0.47821
0.67047
0.88501
0.97717
0.82794
0.52429
0.18585
-0.14404
-0.37872
-0.3891
-0.21698
-0.10468
-0.14771
-0.1947
-0.14923
-0.11963
-0.17456
-0.19836
-0.13428
-0.10773
-0.1709
-0.19318
-0.11719
-0.078125
-0.1358
-0.16113
-0.09613
-0.065613
-0.1178
-0.12329
-0.038147
-0.0018311
-0.063782
-0.081482
-0.0067139
0.029602
-0.021667
-0.028076
0.054016
0.089417
0.039368
0.039368
0.12451
0.1535
0.091858
0.079346
0.15015
0.16357
0.090942
0.067749
0.11688
0.088806
-0.033569
-0.091553
-0.050964
-0.06012
-0.1474
-0.17975
-0.12848
-0.13336
-0.21393
-0.23071
-0.16968
-0.17242
-0.24597
-0.24811
-0.16937
-0.15839
-0.22583
-0.22797
-0.15137
-0.14282
-0.20752
-0.20752
-0.14099
-0.14801
-0.22491
-0.2243
-0.15015
-0.14679
-0.21301
-0.20844
-0.13977
-0.14679
-0.21606
-0.20508
-0.12878
-0.12787
-0.18494
-0.1593
-0.06897
-0.070496
-0.14862
-0.14557
-0.068665
-0.054321
-0.1004
-0.080261
-0.018005
-0.045471
-0.13275
-0.13
-0.071106
-0.098877
-0.18433
-0.18341
-0.12054
-0.13824
-0.21362
-0.20996
-0.15717
-0.1886
-0.2655
-0.24933
-0.18127
-0.19958
-0.26459
-0.23895
-0.1651
-0.18005
-0.24414
-0.21667
-0.14221
-0.14099
-0.14984
-0.011597
0.23529
0.44769
0.61707
0.81787
0.95642
0.87067
0.58929
0.2597
-0.053711
-0.3064
-0.38788
-0.25269
-0.097656
-0.10162
-0.177
-0.16327
-0.10925
-0.13702
-0.18524
-0.13885
-0.075073
-0.1123
-0.17151
-0.12634
-0.055237
-0.085449
-0.14404
-0.10315
-0.03479
-0.057068
-0.10345
-0.060425
-0.0036621
-0.037231
-0.07782
-0.014954
0.06073
0.031433
-0.016174
0.036316
0.1062
0.086365
0.056763
0.11383
0.16754
0.11475
0.056763
0.10376
0.15778
0.10651
0.040283
0.065002
0.091248
0.021057
-0.052185
-0.034485
-0.020142
-0.099487
-0.16846
-0.13672
-0.11169
-0.18311
-0.24261
-0.1947
-0.14832
-0.1947
-0.23285
-0.18005
-0.14618
-0.20874
-0.25024
-0.18616
-0.13824
-0.19165
-0.23254
-0.17792
-0.13855
-0.19073
-0.22125
-0.16083
-0.12787
-0.19135
-0.22278
-0.15656
-0.11902
-0.1825
-0.21759
-0.1535
-0.1178
-0.18005
-0.21729
-0.16205
-0.13611
-0.20142
-0.23041
-0.16022
-0.11963
-0.16663
-0.17761
-0.10132
-0.069885
-0.13062
-0.14435
-0.064087
-0.031738
-0.1001
-0.13275
-0.07843
-0.075073
-0.16663
-0.20966
-0.15778
-0.15411
-0.23926
-0.27191
-0.20905
-0.19501
-0.2713
-0.2951
-0.22736
-0.20966
-0.27771
-0.29266
-0.22095
-0.20416
-0.27313
-0.28595
-0.2121
-0.19287
-0.24353
-0.20935
-0.038757
0.14252
0.30731
0.53925
0.79987
0.90607
0.8136
0.61676
0.33875
-0.068054
-0.41534
-0.4776
-0.31128
-0.20203
-0.23712
-0.25269
-0.20416
-0.21759
-0.29419
-0.28992
-0.20599
-0.1944
-0.26062
-0.26001
-0.18799
-0.18494
-0.24872
-0.23865
-0.16022
-0.16235
-0.23468
-0.23346
-0.16357
-0.16327
-0.22125
-0.19653
-0.10986
-0.10559
-0.16602
-0.14587
-0.062256
-0.057983
-0.11475
-0.090332
-0.0085449
-0.013123
-0.081177
-0.072937
-0.013123
-0.039978
-0.12146
-0.11902
-0.062866
-0.095215
-0.18494
-0.19714
-0.1651
-0.22064
-0.31738
-0.31738
-0.26703
-0.3064
-0.39307
-0.38757
-0.33081
-0.36011
-0.42725
-0.40466
-0.34454
-0.37781
-0.44525
-0.41138
-0.33661
-0.35919
-0.42603
-0.39917
-0.33325
-0.35828
-0.41931
-0.38727
-0.32349
-0.354
-0.41534
-0.38055
-0.31494
-0.34698
-0.40497
-0.36713
-0.30457
-0.3418
-0.40619
-0.37262
-0.31311
-0.35187
-0.41229
-0.37323
-0.3125
-0.35095
-0.41229
-0.37476
-0.31647
-0.34607
-0.383
-0.31982
-0.24719
-0.28137
-0.33081
-0.27527
-0.20386
-0.2359
-0.29388
-0.26794
-0.23987
-0.30457
-0.37109
-0.336
-0.29755
-0.35492
-0.41443
-0.37231
-0.32898
-0.38483
-0.43945
-0.39459
-0.34851
-0.39886
-0.44403
-0.3894
-0.34119
-0.39307
-0.43884
-0.38361
-0.33295
-0.37415
-0.39246
-0.27466
-0.10864
0.029297
0.23315
0.52521
0.73761
0.75897
0.67444
0.51849
0.1889
-0.27893
-0.5722
-0.54382
-0.39551
-0.34485
-0.33936
-0.28564
-0.26794
-0.336
-0.36591
-0.29602
-0.25513
-0.31219
-0.33997
-0.2713
-0.23346
-0.29327
-0.32196
-0.25787
-0.22552
-0.28107
-0.29663
-0.21637
-0.17395
-0.22705
-0.24384
-0.16815
-0.13
-0.17761
-0.18402
-0.10559
-0.079956
-0.14313
-0.15076
-0.059509
-0.016174
-0.074768
-0.097656
-0.03418
-0.015564
-0.084839
-0.10681
-0.050049
-0.046997
-0.13275
-0.17029
-0.12634
-0.13702
-0.23499
-0.28412
-0.25238
-0.2713
-0.35706
-0.37079
-0.29785
-0.28748
-0.36224
-0.37537
-0.29877
-0.27802
-0.34241
-0.354
-0.29144
-0.28015
-0.33234
-0.32318
-0.25543
-0.26825
-0.35187
-0.34912
-0.26062
-0.24109
-0.3006
-0.29877
-0.22919
-0.22949
-0.29663
-0.28473
-0.20569
-0.20905
-0.28961
-0.29755
-0.2298
-0.22919
-0.29541
-0.2887
-0.21851
-0.22491
-0.2951
-0.28534
-0.21271
-0.21637
-0.28229
-0.27344
-0.20721
-0.22095
-0.29327
-0.28198
-0.20599
-0.19928
-0.23987
-0.20172
-0.12268
-0.13062
-0.18158
-0.14282
-0.06134
-0.085449
-0.16876
-0.16083
-0.098877
-0.12848
-0.21271
-0.21149
-0.16205
-0.19836
-0.27649
-0.2597
-0.19531
-0.22217
-0.29022
-0.26489
-0.1947
-0.21484
-0.27496
-0.2417
-0.17456
-0.20538
-0.27618
-0.24658
-0.17242
-0.17303
-0.177
-0.029297
0.22003
0.42816
0.59753
0.7962
0.9314
0.85358
0.59113
0.27954
-0.045166
-0.31982
-0.41199
-0.2771
-0.12299
-0.12756
-0.19806
-0.18127
-0.13702
-0.17883
-0.2301
-0.18066
-0.11383
-0.14618
-0.19348
-0.14343
-0.079041
-0.11322
-0.16174
-0.11169
-0.050049
-0.08606
-0.13
-0.077209
-0.013733
-0.046387
-0.084839
-0.027466
0.030212
-0.0061035
-0.036621
0.035095
0.10315
0.068054
0.031433
0.095825
0.15411
0.10742
0.058289
0.10406
0.14465
0.090637
0.04364
0.08728
0.11017
0.025635
-0.05188
-0.030518
-0.020447
-0.10345
-0.16968
-0.13794
-0.12177
-0.19867
-0.24658
-0.18677
-0.14404
-0.19989
-0.23682
-0.17792
-0.14282
-0.20416
-0.23743
-0.16876
-0.12207
-0.17242
-0.20294
-0.14313
-0.11292
-0.17273
-0.19897
-0.13031
-0.09552
-0.15381
-0.18005
-0.11566
-0.08728
-0.15045
-0.17212
-0.10101
-0.071411
-0.13794
-0.16663
-0.10254
-0.075378
-0.13763
-0.15961
-0.093689
-0.075378
-0.14404
-0.16693
-0.099182
-0.076294
-0.14282
-0.16266
-0.09552
-0.076904
-0.14252
-0.15839
-0.091248
-0.076599
-0.14435
-0.15594
-0.082703
-0.066528
-0.13275
-0.1413
-0.071716
-0.063477
-0.13794
-0.15015
-0.078125
-0.065918
-0.13458
-0.14099
-0.066223
-0.049133
-0.097656
-0.077515
0.015259
0.029297
-0.039368
-0.032959
0.052795
0.065308
-0.011597
-0.028381
0.027466
0.012817
-0.074768
-0.091248
-0.031128
-0.039063
-0.11444
-0.11749
-0.053101
-0.061646
-0.13733
-0.13611
-0.064697
-0.067139
-0.13153
-0.12268
-0.05188
-0.060425
-0.12878
-0.11536
-0.035095
-0.016174
-0.023193
0.10193
0.34943
0.56519
0.72174
0.90271
1.0492
0.99487
0.73486
0.41626
0.11292
-0.13885
-0.24414
-0.13336
0.02655
0.037537
-0.04425
-0.046997
0.0091553
-0.0097656
-0.07019
-0.041809
0.031738
0.01709
-0.041504
-0.012207
0.058289
0.038757
-0.020447
0.013428
0.087891
0.074158
0.022583
0.060425
0.13184
0.11078
0.058899
0.10254
0.18036
0.16205
0.10956
0.15503
0.23743
0.23254
0.19592
0.24445
0.30792
0.27466
0.21698
0.25848
0.31982
0.27863
0.20874
0.23346
0.2771
0.21698
0.12665
0.12817
0.14954
0.081177
-0.0018311
0.013428
0.04425
-0.016174
-0.080566
-0.036621
0.025024
-0.014038
-0.070496
-0.033875
0.014343
-0.028687
-0.075989
-0.02533
0.027771
-0.01709
-0.065308
-0.012817
0.041504
-0.0033569
-0.047607
0.0064087
0.057983
0.010986
-0.035095
0.018921
0.068665
0.01709
-0.032349
0.014343
0.059204
0.010071
-0.028992
0.026855
0.070496
0.01709
-0.02655
0.024414
0.061646
0.0067139
-0.029602
0.031433
0.074768
0.021362
-0.016785
0.039368
0.073242
0.013123
-0.022583
0.036621
0.072327
0.011902
-0.023193
0.037842
0.075989
0.020752
-0.0073242
0.056458
0.095825
0.05127
0.042725
0.12238
0.16052
0.10681
0.090332
0.16449
0.19196
0.12024
0.084229
0.14008
0.15381
0.073242
0.030518
0.079651
0.090637
0.015869
-0.011902
0.050049
0.065002
-0.0088501
-0.036621
0.024414
0.04364
-0.019226
-0.032654
0.037842
0.054932
-0.014954
-0.031433
0.039978
0.074463
0.064087
0.16541
0.41351
0.65826
0.82184
0.98785
1.1472
1.1313
0.87494
0.5249
0.19257
-0.071106
-0.19836
-0.11139
0.067444
0.11688
0.037537
0.0088501
0.069275
0.077209
0.017395
0.021973
0.096741
0.10101
0.036316
0.042419
0.12054
0.1236
0.054321
0.058594
0.13702
0.14526
0.085144
0.095825
0.17395
0.1767
0.11841
0.13733
0.22003
0.22308
0.16327
0.18677
0.27618
0.28687
0.23438
0.25909
0.34058
0.33508
0.26703
0.27557
0.33722
0.31342
0.23529
0.24109
0.29541
0.25635
0.15564
0.13672
0.16968
0.12268
0.029602
0.027771
0.077209
0.041504
-0.037231
-0.022888
0.044556
0.025635
-0.041504
-0.021362
0.042419
0.019836
-0.044861
-0.019226
0.048828
0.027771
-0.032654
-0.0024414
0.065918
0.041504
-0.021057
0.007019
0.072021
0.046387
-0.014648
0.016479
0.078735
0.049744
-0.0091553
0.026245
0.090027
0.058289
-0.0033569
0.028687
0.085754
0.047607
-0.01709
0.014038
0.073242
0.041809
-0.010681
0.028992
0.084534
0.045471
-0.010986
0.027466
0.083313
0.047302
0.0042725
0.063171
0.13489
0.1062
0.060425
0.11047
0.17639
0.15015
0.10742
0.14618
0.17731
0.10895
0.039978
0.073853
0.11292
0.054321
-0.0079346
0.027161
0.064087
0.0073242
-0.04425
0.0036621
0.049744
-0.00030518
-0.044861
0.007019
0.049133
-0.005188
-0.047302
0.010681
0.059509
0.010681
-0.0177
0.077209
0.20813
0.3067
0.48828
0.79132
1.0434
1.1124
1.0892
1.0046
0.73334
0.26489
-0.10315
-0.16327
-0.062866
-0.005188
0.024109
0.088501
0.10498
0.032654
-0.0012207
0.068665
0.10925
0.052185
0.021057
0.084229
0.11841
0.059814
0.036926
0.10712
0.14282
0.085754
0.064392
0.13489
0.16876
0.11292
0.098572
0.17365
0.20599
0.15015
0.1416
0.22614
0.26794
0.22095
0.21667
0.29663
0.32654
0.26794
0.25635
0.32898
0.3479
0.27649
0.25177
0.3064
0.30579
0.21881
0.18219
0.22003
0.19958
0.094604
0.049133
0.088501
0.073853
-0.015259
-0.040588
0.016479
0.014648
-0.059814
-0.066833
0.0076294
0.014343
-0.059509
-0.070496
-0.00091553
0.0076294
-0.056458
-0.057983
0.012207
0.014038
-0.055542
-0.053101
0.019836
0.023804
-0.042114
-0.036621
0.034485
0.028687
-0.04425
-0.038452
0.039673
0.041504
-0.026245
-0.021057
0.048218
0.038452
-0.037842
-0.035095
0.037842
0.034485
-0.03479
-0.029602
0.0354
0.024109
-0.042114
-0.028076
0.040588
0.023499
-0.050354
-0.037231
0.036011
0.026855
-0.037537
-0.014954
0.066833
0.067749
0.0177
0.050049
0.12665
0.11627
0.060425
0.090027
0.15656
0.12024
0.029602
0.032043
0.083923
0.051575
-0.025635
-0.014038
0.038147
0.0024414
-0.069275
-0.047913
0.012817
-0.01709
-0.084229
-0.058289
0.0036621
-0.02533
-0.085144
-0.049744
0.014954
-0.016174
-0.079651
-0.038147
0.059509
0.10895
0.1889
0.42938
0.72815
0.90851
0.98572
1.059
1.0184
0.72235
0.28259
-0.031128
-0.1413
-0.15259
-0.098572
0.01709
0.08606
0.028992
-0.045471
-0.011902
0.045166
0.0088501
-0.039673
0.0061035
0.061951
0.022583
-0.025024
0.025024
0.082703
0.044861
0.0030518
0.058594
0.11505
0.073547
0.032349
0.093384
0.15625
0.12024
0.083313
0.14526
0.20508
0.16724
0.13611
0.20447
0.26825
0.23407
0.20325
0.26642
0.31616
0.26398
0.21698
0.26245
0.29449
0.22919
0.17487
0.21027
0.21912
0.12451
0.043945
0.063477
0.068054
-0.016174
-0.074158
-0.029907
-0.0067139
-0.077209
-0.1181
-0.058594
-0.02533
-0.091248
-0.13031
-0.069275
-0.034485
-0.095215
-0.12634
-0.063171
-0.032043
-0.093384
-0.1181
-0.043945
-0.0048828
-0.063171
-0.087891
-0.021973
0.005188
-0.059509
-0.084229
-0.016479
0.010376
-0.053406
-0.077515
-0.015564
0.00030518
-0.068665
-0.084534
-0.0094604
0.013733
-0.054321
-0.076904
-0.010986
0.0061035
-0.061646
-0.07782
-0.0094604
0.0039673
-0.067444
-0.082703
-0.012817
0.0012207
-0.071106
-0.08667
-0.017395
-0.0042725
-0.06897
-0.072327
0.0024414
0.012817
-0.060425
-0.06897
0.0030518
0.012207
-0.053101
-0.044556
0.049438
0.078125
0.024719
0.029907
0.10986
0.12207
0.057068
0.05127
0.11017
0.097351
0.015869
0.0033569
0.058899
0.043335
-0.037231
-0.045166
0.014038
-0.00091553
-0.079651
-0.079651
-0.013123
-0.019836
-0.087891
-0.076904
-0.0061035
-0.016174
-0.083923
-0.067749
0.010376
0.0039673
-0.058289
-0.011902
0.14191
0.27161
0.40771
0.65369
0.92651
1.0376
0.99701
0.91034
0.72327
0.33417
-0.068054
-0.19867
-0.093079
-0.0039673
-0.0076294
0.014648
0.06134
0.024109
-0.046997
-0.020142
0.052795
0.035095
-0.027466
-0.00091553
0.068359
0.050049
-0.007019
0.028076
0.096436
0.072327
0.014648
0.053101
0.12756
0.10834
0.055847
0.097961
0.17181
0.15289
0.10437
0.15198
0.22858
0.21179
0.17059
0.22552
0.30121
0.27771
0.22583
0.26886
0.33051
0.29053
0.22369
0.25116
0.29572
0.24231
0.16785
0.18494
0.20996
0.13184
0.036316
0.045776
0.074768
0.011902
-0.06073
-0.031433
0.012207
-0.038452
-0.09613
-0.054626
-0.0048828
-0.050354
-0.1001
-0.049744
0.0036621
-0.043945
-0.092773
-0.041504
0.012207
-0.033569
-0.077209
-0.021667
0.030518
-0.018311
-0.064087
-0.012207
0.033875
-0.016785
-0.057678
-0.00030518
0.046082
-0.0091553
-0.053711
-0.00091553
0.036011
-0.022278
-0.06134
-0.00030518
0.039978
-0.020752
-0.062866
-0.0064087
0.030823
-0.030518
-0.068054
-0.0067139
0.031738
-0.027466
-0.062256
-0.0033569
0.028381
-0.03418
-0.065613
-0.0021362
0.029907
-0.033569
-0.065002
-0.00030518
0.035095
-0.023804
-0.050659
0.0094604
0.036011
-0.015564
-0.018005
0.071716
0.11139
0.050659
0.03418
0.11292
0.14404
0.078125
0.047302
0.10498
0.11383
0.028076
-0.012512
0.039978
0.050049
-0.025024
-0.051575
0.0082397
0.015869
-0.06134
-0.084229
-0.017395
0.00030518
-0.066223
-0.079956
-0.011292
0.0018311
-0.063171
-0.068054
0.0076294
0.027466
-0.0082397
0.067749
0.29205
0.52063
0.69305
0.89081
1.0852
1.1166
0.92529
0.63873
0.31464
-0.017395
-0.22552
-0.17914
0.0067139
0.076599
0.013428
-0.0064087
0.047302
0.040894
-0.027771
-0.018005
0.059814
0.061646
-0.0079346
-0.0024414
0.071716
0.070801
0.0045776
0.016785
0.093994
0.092773
0.026855
0.044556
0.12726
0.13092
0.069275
0.088806
0.17212
0.17426
0.1178
0.14526
0.23102
0.23529
0.18097
0.20905
0.289
0.27802
0.21149
0.22949
0.29694
0.27344
0.19562
0.20416
0.25848
0.21515
0.11505
0.10132
0.1355
0.080261
-0.020142
-0.025024
0.019836
-0.020447
-0.098572
-0.078735
-0.013733
-0.041809
-0.11597
-0.093384
-0.02655
-0.047607
-0.10864
-0.080566
-0.018005
-0.046692
-0.10468
-0.066528
0.0015259
-0.028687
-0.092163
-0.057983
0.007019
-0.02594
-0.088196
-0.050964
0.016785
-0.010986
-0.068359
-0.033264
0.025024
-0.011902
-0.068054
-0.027466
0.031738
-0.0091553
-0.066833
-0.024109
0.038147
-0.00030518
-0.057983
-0.019226
0.03418
-0.0097656
-0.065002
-0.018616
0.037842
-0.007019
-0.062866
-0.016174
0.041504
0.005188
-0.031433
0.033875
0.10223
0.065308
0.023193
0.083618
0.14557
0.10284
0.050049
0.088501
0.11932
0.050659
-0.013428
0.021362
0.050354
-0.015869
-0.06958
-0.019836
0.019836
-0.039368
-0.086975
-0.0354
0.0030518
-0.057678
-0.1001
-0.040283
0.0054932
-0.046692
-0.080566
-0.016479
0.027161
-0.023193
-0.032043
0.099487
0.27008
0.40955
0.61523
0.90118
1.091
1.0886
0.97351
0.784
0.42603
-0.016785
-0.24139
-0.1593
-0.010681
0.010986
-0.0012207
0.050659
0.066223
-0.00091553
-0.02533
0.046082
0.076904
0.013733
-0.0064087
0.066528
0.097961
0.036926
0.021362
0.098267
0.1297
0.067444
0.05249
0.1297
0.16083
0.10162
0.089722
0.16937
0.20081
0.14343
0.1355
0.21423
0.24261
0.18982
0.19257
0.27802
0.30426
0.24536
0.24078
0.31342
0.3186
0.23804
0.21851
0.28107
0.2774
0.18311
0.14343
0.17853
0.14832
0.04425
0.011292
0.061035
0.04425
-0.048828
-0.067749
-0.0039673
-0.0054932
-0.080261
-0.083618
-0.011597
-0.010376
-0.081177
-0.079041
-0.0067139
-0.010376
-0.081177
-0.073547
0.0042725
0.0030518
-0.06897
-0.063782
0.0085449
0.0036621
-0.064697
-0.050354
0.02655
0.018311
-0.055847
-0.046997
0.02655
0.0177
-0.054321
-0.04425
0.028076
0.016785
-0.05249
-0.038452
0.028687
0.0094604
-0.064697
-0.050049
0.021667
0.0039673
-0.065918
-0.050049
0.018005
-0.0018311
-0.07019
-0.048218
0.021973
0.00030518
-0.06958
-0.048523
0.018005
-0.0054932
-0.06958
-0.034485
0.052185
0.049133
0.00061035
0.035706
0.1062
0.08728
0.033264
0.07019
0.13031
0.08667
0.0039673
0.019226
0.06958
0.025635
-0.050964
-0.032654
0.016785
-0.027161
-0.09552
-0.065918
-0.010681
-0.05249
-0.11658
-0.077209
-0.013123
-0.047913
-0.10681
-0.065613
-0.0018311
-0.037231
-0.091553
-0.0354
0.069885
0.12329
0.21881
0.47394
0.76691
0.92865
0.98999
1.0406
0.95306
0.61279
0.16937
-0.095825
-0.1532
-0.13672
-0.081177
0.019531
0.069275
0.0039673
-0.058594
-0.012817
0.039673
-0.0036621
-0.044861
0.012512
0.067139
0.021667
-0.018311
0.039368
0.090637
0.04303
0.0048828
0.066833
0.1178
0.06958
0.033875
0.099182
0.15381
0.10986
0.082397
0.15472
0.21057
0.16632
0.14038
0.21362
0.26886
0.22522
0.2002
0.26917
0.31067
0.25085
0.21057
0.26276
0.28564
0.21118
0.16388
0.20447
0.20691
0.10742
0.038147
0.064087
0.06073
-0.030823
-0.079041
-0.031738
-0.070801
-0.25543
-0.34973
-0.22583
-0.097961
-0.1535
-0.22888
-0.14435
-0.049438
-0.11475
-0.18982
-0.10223
-0.010071
-0.080872
-0.15808
-0.071106
0.01709
-0.057373
-0.13458
-0.050354
0.031738
-0.047607
-0.12146
-0.032349
0.046997
-0.037537
-0.11078
-0.018311
0.060425
-0.028992
-0.1059
-0.016479
0.059204
-0.028076
-0.098572
-0.0076294
0.059204
-0.036011
-0.10559
-0.010681
0.058289
-0.036316
-0.10284
-0.007019
0.056152
-0.040588
-0.099487
0.0024414
0.065613
-0.036621
-0.097961
0.0042725
0.066223
-0.03418
-0.093994
0.0061035
0.060425
-0.040894
-0.090942
0.014038
0.064392
-0.04364
-0.092468
0.018005
0.067139
-0.043335
-0.091553
0.021057
0.070496
-0.037537
-0.082092
0.027161
0.06958
-0.040894
-0.082092
0.028687
0.070496
-0.030212
-0.049438
0.083618
0.13428
0.030212
0.0039673
0.12939
0.17303
0.064697
0.028687
0.12909
0.14191
0.010376
-0.029907
0.075073
0.093689
-0.028992
-0.062256
0.041809
0.053406
-0.06958
-0.092468
0.023499
0.042419
-0.075684
-0.093689
0.023193
0.041504
-0.071411
-0.081787
0.037231
0.061951
-0.015564
0.055847
0.3067
0.50964
0.62531
0.83282
1.0873
1.1313
0.92255
0.67688
0.42908
0.090942
-0.18829
-0.16296
0.052795
0.1123
0.00091553
-0.012207
0.086975
0.071716
-0.040588
-0.025635
0.091858
0.080261
-0.032349
-0.010681
0.11169
0.10132
-0.007019
0.021362
0.14496
0.13153
0.024109
0.056152
0.18219
0.16785
0.06134
0.097351
0.22705
0.21454
0.11322
0.15289
0.27985
0.26917
0.17853
0.22949
0.35461
0.32928
0.22461
0.26428
0.3772
0.33691
0.22064
0.24658
0.33844
0.27832
0.14618
0.159
0.22919
0.14465
0.00061035
0.016174
0.097656
0.029297
-0.091858
-0.053101
0.042725
-0.013428
-0.12024
-0.069275
0.033264
-0.020447
-0.1178
-0.057678
0.04364
-0.015564
-0.11261
-0.046387
0.056152
-0.005188
-0.10223
-0.03479
0.068054
0.0054932
-0.088806
-0.019836
0.078735
0.012817
-0.083008
-0.014343
0.07843
0.0097656
-0.079651
-0.0061035
0.083923
0.010376
-0.076599
0.00061035
0.085144
0.0033569
-0.084839
-0.0033569
0.085144
0.0064087
-0.076904
0.005188
0.086365
0.00030518
-0.083313
0.00061035
0.081787
-0.0015259
-0.079041
0.010071
0.08667
-0.0021362
-0.076904
0.015564
0.095215
0.011597
-0.055237
0.038147
0.10406
0.0057983
-0.064697
0.032959
0.10376
0.0088501
-0.057678
0.039978
0.10406
0.0057983
-0.054626
0.054321
0.13336
0.054016
0.011597
0.12634
0.19745
0.1062
0.055542
0.15564
0.2005
0.079651
0.0073242
0.095825
0.13672
0.023499
-0.0354
0.061951
0.10468
-0.007019
-0.061646
0.038757
0.077209
-0.035706
-0.079956
0.030518
0.075684
-0.029907
-0.065308
0.05188
0.095215
-0.010071
-0.021973
0.159
0.32562
0.40955
0.61554
0.95184
1.1401
1.0922
0.99701
0.87891
0.53223
0.031738
-0.2063
-0.092468
0.042114
0.016174
0.014954
0.11566
0.12024
-0.0021362
-0.015564
0.10986
0.13428
0.019226
0.0024414
0.11993
0.13855
0.031738
0.032043
0.15839
0.17059
0.051575
0.045471
0.17334
0.19287
0.085449
0.088196
0.21423
0.22705
0.12054
0.13306
0.2652
0.27985
0.1767
0.19653
0.33386
0.34668
0.23895
0.24963
0.36774
0.35706
0.2356
0.23743
0.34302
0.31586
0.18036
0.1709
0.25757
0.20538
0.051575
0.03479
0.11993
0.074158
-0.064392
-0.059509
0.043335
0.013733
-0.10223
-0.073547
0.044556
0.016174
-0.10376
-0.078735
0.035095
0.0091553
-0.099487
-0.063782
0.051575
0.020752
-0.089417
-0.055237
0.053406
0.016174
-0.090332
-0.043945
0.071411
0.032654
-0.075073
-0.031433
0.079956
0.036926
-0.071411
-0.024414
0.085754
0.042725
-0.061951
-0.014954
0.085449
0.033264
-0.069885
-0.012817
0.09613
0.045776
-0.058594
-0.0048828
0.09491
0.036926
-0.065308
-0.0097656
0.088501
0.029602
-0.068359
-0.0085449
0.084839
0.021362
-0.071106
-0.0012207
0.094604
0.034485
-0.041199
0.054321
0.16754
0.10315
0.013123
0.096436
0.20508
0.14099
0.044556
0.10406
0.17426
0.080566
-0.02533
0.037231
0.11139
0.022888
-0.071411
0.00091553
0.075989
-0.013733
-0.10223
-0.022583
0.055847
-0.027771
-0.10498
-0.017395
0.057678
-0.030212
-0.10315
-0.0076294
0.072021
-0.0045776
-0.030823
0.16327
0.40131
0.53284
0.69824
0.98358
1.1597
1.059
0.8313
0.60791
0.271
-0.12634
-0.27985
-0.10284
0.070496
0.023499
-0.040283
0.039673
0.085144
-0.019836
-0.071411
0.040283
0.10132
-0.0048828
-0.06073
0.049133
0.11292
0.014038
-0.035095
0.074463
0.13062
0.028687
-0.013733
0.10345
0.16174
0.06134
0.021667
0.14221
0.20325
0.10956
0.082703
0.20844
0.26154
0.16357
0.13794
0.26947
0.32501
0.22125
0.18646
0.29816
0.33142
0.21423
0.17365
0.27344
0.28259
0.1416
0.080261
0.15808
0.14435
-0.011292
-0.072327
0.016479
0.0177
-0.11749
-0.1532
-0.046692
-0.032654
-0.1535
-0.17365
-0.056763
-0.040894
-0.16083
-0.17883
-0.061951
-0.046082
-0.16022
-0.16968
-0.05127
-0.040588
-0.15533
-0.15686
-0.035706
-0.027771
-0.14343
-0.1416
-0.018921
-0.01709
-0.13855
-0.1413
-0.022888
-0.021667
-0.13611
-0.13062
-0.010681
-0.015259
-0.12848
-0.11719
0.00030518
-0.014648
-0.13885
-0.13
-0.0082397
-0.01709
-0.13397
-0.12299
-0.0085449
-0.024109
-0.13824
-0.1178
0.00061035
-0.017395
-0.13245
-0.11108
0.0024414
-0.021362
-0.1358
-0.10773
0.0082397
-0.018311
-0.13214
-0.097961
0.028076
0.016479
-0.074158
-0.023499
0.10101
0.077209
-0.022888
0.022278
0.13
0.079956
-0.044556
-0.015259
0.080261
0.019531
-0.10773
-0.074463
0.02655
-0.02655
-0.14069
-0.097656
0.0076294
-0.045471
-0.16022
-0.1178
-0.013123
-0.058899
-0.15289
-0.090027
0.015869
-0.041504
-0.14801
-0.084229
0.053101
0.077209
0.11536
0.37598
0.7077
0.85541
0.89233
0.99701
1.0077
0.70679
0.24689
-0.033569
-0.11292
-0.16144
-0.14496
0.0024414
0.10803
0.019226
-0.090332
-0.022278
0.071716
0.0057983
-0.075989
0.0057983
0.096741
0.022583
-0.059814
0.025024
0.11688
0.042725
-0.0354
0.053406
0.14404
0.068665
-0.0048828
0.089722
0.18311
0.11292
0.049438
0.14923
0.23956
0.16663
0.10895
0.21698
0.30823
0.23132
0.17334
0.27893
0.36102
0.271
0.19897
0.28809
0.34668
0.23773
0.15411
0.23071
0.26886
0.13519
0.032959
0.095825
0.12634
-0.0076294
-0.1001
-0.02594
0.014343
-0.1004
-0.16449
-0.06134
-0.0018311
-0.1062
-0.16266
-0.061035
-0.010376
-0.11688
-0.16663
-0.053711
0.00030518
-0.10529
-0.15106
-0.037842
0.013428
-0.094299
-0.13977
-0.027161
0.020752
-0.08606
-0.12451
-0.0097656
0.035095
-0.075073
-0.11414
-0.00061035
0.037842
-0.074158
-0.10834
0.0061035
0.042114
-0.074158
-0.10956
0.0030518
0.03418
-0.07843
-0.10376
0.013733
0.041504
-0.076904
-0.10406
0.011292
0.035095
-0.081177
-0.10254
0.017395
0.037537
-0.081482
-0.10132
0.016174
0.033264
-0.083008
-0.09613
0.02655
0.042114
-0.075989
-0.086365
0.038147
0.062561
-0.036621
-0.023499
0.11047
0.13092
0.027466
0.036316
0.15717
0.14893
0.015259
0.00030518
0.10559
0.08728
-0.047302
-0.054016
0.059509
0.050659
-0.071716
-0.072632
0.036926
0.020447
-0.099182
-0.084534
0.035706
0.022888
-0.093994
-0.078125
0.039978
0.023804
-0.089111
-0.060425
0.080566
0.11505
0.10712
0.30457
0.65247
0.86487
0.92957
1.0428
1.1304
0.92041
0.47546
0.11505
-0.038147
-0.12726
-0.15076
-0.016479
0.13397
0.090637
-0.037231
-0.0042725
0.11078
0.075378
-0.038147
-0.0018311
0.10773
0.071411
-0.028381
0.028076
0.14618
0.11169
0.011902
0.066223
0.17334
0.12421
0.019836
0.07782
0.18463
0.13397
0.034485
0.10254
0.22461
0.18707
0.096436
0.16479
0.27649
0.23529
0.15839
0.23956
0.34882
0.28442
0.177
0.23285
0.32135
0.24292
0.12939
0.17578
0.24628
0.14648
0.011597
0.039368
0.093689
-0.011597
-0.13306
-0.085449
-0.012817
-0.098267
-0.19409
-0.12329
-0.039673
-0.11261
-0.18372
-0.098877
-0.028687
-0.14191
-0.24719
-0.16083
-0.063171
-0.13977
-0.22278
-0.13611
-0.04303
-0.112
-0.18463
-0.10101
-0.035095
-0.13092
-0.20386
-0.1059
-0.027771
-0.11932
-0.19012
-0.089111
-0.010071
-0.10529
-0.18402
-0.095215
-0.029602
-0.12817
-0.19806
-0.10223
-0.03479
-0.12787
-0.18188
-0.076904
-0.015259
-0.12573
-0.19653
-0.097656
-0.039368
-0.14923
-0.21545
-0.11353
-0.047607
-0.14038
-0.18677
-0.072632
-0.007019
-0.096436
-0.12848
-0.0097656
0.046082
-0.06012
-0.1062
0.0033569
0.045166
-0.080872
-0.14343
-0.046082
-0.0057983
-0.12177
-0.18066
-0.097046
-0.079346
-0.19806
-0.23163
-0.11383
-0.073853
-0.1825
-0.20782
-0.085449
-0.050659
-0.16693
-0.19653
-0.070801
-0.029602
-0.13336
-0.13733
0.03479
0.17517
0.2475
0.47302
0.8374
1.0394
1.0071
0.94788
0.85693
0.51331
-0.012512
-0.27954
-0.18799
-0.063171
-0.070801
-0.046692
0.054321
0.03418
-0.10132
-0.10651
0.023804
0.035095
-0.080261
-0.075989
0.057983
0.073242
-0.040283
-0.03418
0.092468
0.09552
-0.022278
-0.015259
0.11414
0.12543
0.021362
0.041504
0.16815
0.16327
0.05188
0.079651
0.21942
0.22705
0.12482
0.15533
0.289
0.28442
0.17578
0.2005
0.32074
0.30151
0.18677
0.21301
0.33142
0.29541
0.15228
0.14374
0.2182
0.15259
-0.00061035
-0.0054932
0.074463
0.0067139
-0.13458
-0.11261
-0.00061035
-0.036621
-0.15533
-0.1178
0.00091553
-0.030823
-0.1413
-0.10193
0.010681
-0.027161
-0.13092
-0.079956
0.028381
-0.02655
-0.14496
-0.098267
0.020142
-0.020142
-0.12726
-0.079651
0.024414
-0.024719
-0.12268
-0.061035
0.045776
-0.014343
-0.11719
-0.05188
0.065002
0.013733
-0.093994
-0.048523
0.03479
-0.035706
-0.13123
-0.060425
0.039063
-0.030212
-0.12848
-0.057983
0.040283
-0.029602
-0.12482
-0.05188
0.04364
-0.031738
-0.12695
-0.048523
0.058594
0.0036621
-0.066528
0.023499
0.11932
0.051575
-0.024109
0.062256
0.14008
0.040283
-0.06134
0.0097656
0.081177
-0.019226
-0.11414
-0.037842
0.03418
-0.064697
-0.15564
-0.072327
0.0048828
-0.088501
-0.17303
-0.091248
-0.018616
-0.10712
-0.16998
-0.068359
0.0036621
-0.10101
-0.17761
-0.068054
0.048828
0.038757
0.11108
0.41382
0.71686
0.83008
0.89935
1.033
0.98358
0.60181
0.14618
-0.08606
-0.16449
-0.22064
-0.16815
0.0039673
0.066528
-0.061951
-0.13489
-0.028381
0.03418
-0.068359
-0.11902
-0.0085449
0.044861
-0.063171
-0.10956
0.0082397
0.064697
-0.039673
-0.079041
0.039978
0.092163
-0.012817
-0.046082
0.081177
0.13641
0.035095
0.0048828
0.13031
0.18097
0.079041
0.058594
0.1944
0.25208
0.15625
0.13855
0.2597
0.28564
0.15961
0.12604
0.25116
0.29053
0.17365
0.13092
0.21118
0.18372
0.014038
-0.047302
0.045166
0.043945
-0.1001
-0.14923
-0.055847
-0.057373
-0.18463
-0.19501
-0.069885
-0.058899
-0.18799
-0.20905
-0.093384
-0.079651
-0.19318
-0.19196
-0.068054
-0.068359
-0.19745
-0.20081
-0.071106
-0.058899
-0.17578
-0.1767
-0.053101
-0.049438
-0.16632
-0.16174
-0.04364
-0.050354
-0.16998
-0.15808
-0.030518
-0.036621
-0.15686
-0.15106
-0.033264
-0.045471
-0.16266
-0.14435
-0.022888
-0.042725
-0.17151
-0.16357
-0.049438
-0.067139
-0.18005
-0.1535
-0.031433
-0.055237
-0.17334
-0.15076
-0.037231
-0.065002
-0.17822
-0.13885
-0.014648
-0.041199
-0.15076
-0.10498
0.023499
-0.005188
-0.11993
-0.075684
0.058899
0.042419
-0.062866
-0.03479
0.05249
-0.013428
-0.14313
-0.10803
-0.0045776
-0.057983
-0.18097
-0.14862
-0.054626
-0.11475
-0.23193
-0.18585
-0.078735
-0.12756
-0.22705
-0.16541
-0.056152
-0.10712
-0.20782
-0.14862
-0.047913
-0.10986
-0.19287
-0.069275
0.15259
0.27344
0.40558
0.69611
0.96191
0.96741
0.82672
0.70404
0.47058
0.032959
-0.29633
-0.26093
-0.076599
-0.059814
-0.12085
-0.050354
0.027161
-0.062866
-0.16174
-0.082703
0.016479
-0.049744
-0.12817
-0.043335
0.044556
-0.03418
-0.11047
-0.015259
0.075989
-0.0097656
-0.094604
-0.0027466
0.093994
0.024719
-0.036926
0.065613
0.15472
0.06958
-0.0036621
0.1001
0.19653
0.1236
0.065613
0.17487
0.26398
0.18158
0.11902
0.22217
0.2948
0.1944
0.11627
0.2066
0.2655
0.14801
0.054016
0.11658
0.13824
-0.0057983
-0.1059
-0.032349
0.0061035
-0.11963
-0.2005
-0.11353
-0.064697
-0.17303
-0.2298
-0.12573
-0.073242
-0.18066
-0.23102
-0.11963
-0.071716
-0.1889
-0.2417
-0.12726
-0.069885
-0.17487
-0.21637
-0.097656
-0.045471
-0.15839
-0.20844
-0.10071
-0.058289
-0.16785
-0.20508
-0.090027
-0.051575
-0.16327
-0.19318
-0.072327
-0.040894
-0.16632
-0.2063
-0.088196
-0.052185
-0.16693
-0.1947
-0.075073
-0.044861
-0.16449
-0.19012
-0.069885
-0.049133
-0.17548
-0.20508
-0.086975
-0.064392
-0.18311
-0.19867
-0.074768
-0.052185
-0.16937
-0.18158
-0.060425
-0.049133
-0.17456
-0.19012
-0.068054
-0.054016
-0.17059
-0.17609
-0.056458
-0.053406
-0.17639
-0.17822
-0.050964
-0.037842
-0.14618
-0.12878
0.0082397
0.016785
-0.096436
-0.078125
0.060425
0.06134
-0.072937
-0.086365
0.018005
-0.0024414
-0.13367
-0.13153
-0.019226
-0.040894
-0.17242
-0.16693
-0.054626
-0.075684
-0.19745
-0.17609
-0.054016
-0.075073
-0.19836
-0.17883
-0.057983
-0.076904
-0.18982
-0.15778
-0.028381
-0.021973
-0.062561
0.10468
0.4245
0.63202
0.73273
0.91125
1.0791
0.95734
0.58685
0.23865
-0.0079346
-0.21973
-0.30853
-0.15778
0.029907
0.0012207
-0.12421
-0.092773
0.014954
-0.029907
-0.1358
-0.083618
0.029907
-0.013123
-0.11444
-0.053406
0.061035
0.013733
-0.087891
-0.02594
0.089417
0.040894
-0.057678
0.0073242
0.11597
0.062256
-0.030823
0.046387
0.16541
0.11597
0.029907
0.11383
0.23346
0.18005
0.089722
0.16876
0.28107
0.2243
0.13214
0.20325
0.2948
0.21393
0.10895
0.16968
0.24506
0.14496
0.018005
0.054932
0.1062
-0.0064087
-0.12329
-0.065613
0.0018311
-0.09552
-0.18951
-0.10651
-0.022278
-0.11047
-0.19684
-0.10895
-0.024719
-0.1123
-0.19501
-0.1062
-0.024719
-0.11322
-0.18829
-0.090942
-0.010071
-0.1004
-0.17303
-0.076294
0.00091553
-0.092468
-0.16266
-0.06012
0.018311
-0.074768
-0.14404
-0.046082
0.018311
-0.084534
-0.14954
-0.04364
0.026855
-0.073547
-0.13794
-0.036011
0.023499
-0.083618
-0.14313
-0.031433
0.030518
-0.076599
-0.13611
-0.031433
0.021057
-0.089417
-0.14191
-0.026245
0.027466
-0.088196
-0.14435
-0.033264
0.022583
-0.077209
-0.10315
0.036011
0.099487
-0.0054932
-0.041809
0.086365
0.14038
0.02594
-0.023804
0.079346
0.1062
-0.02533
-0.079041
0.022583
0.041199
-0.091858
-0.1358
-0.019836
0.010986
-0.11292
-0.15228
-0.039673
-0.010681
-0.12665
-0.14832
-0.026245
0.00030518
-0.11841
-0.13855
-0.014343
0.012207
-0.087891
-0.048828
0.1889
0.39032
0.50507
0.72632
1.0269
1.1285
0.97198
0.76263
0.53589
0.14526
-0.23712
-0.28992
-0.06958
0.037231
-0.052795
-0.069275
0.036621
0.032959
-0.090637
-0.088806
0.041504
0.052795
-0.058289
-0.049133
0.074463
0.072021
-0.044861
-0.028992
0.10162
0.099182
-0.018005
-0.0012207
0.12848
0.12421
0.010681
0.036011
0.1709
0.16663
0.057068
0.089111
0.22614
0.22675
0.1236
0.16174
0.29602
0.28412
0.17365
0.20508
0.32532
0.29541
0.16815
0.18494
0.28809
0.23926
0.097351
0.097961
0.17426
0.095825
-0.059204
-0.054016
0.038757
-0.020142
-0.15259
-0.12543
-0.0177
-0.061951
-0.17609
-0.13306
-0.021973
-0.07019
-0.18677
-0.13977
-0.026245
-0.067749
-0.17029
-0.11414
-0.0061035
-0.063477
-0.17639
-0.12054
-0.0082397
-0.056152
-0.15594
-0.093079
0.013428
-0.046082
-0.15076
-0.08667
0.021362
-0.03479
-0.13519
-0.072021
0.025635
-0.042114
-0.14038
-0.071106
0.027466
-0.040894
-0.13641
-0.062866
0.032959
-0.042725
-0.14069
-0.066223
0.026245
-0.050354
-0.14313
-0.062866
0.028381
-0.053711
-0.14526
-0.061035
0.032654
-0.049133
-0.13763
-0.055237
0.030823
-0.054016
-0.13855
-0.047607
0.04303
-0.029297
-0.090637
0.021667
0.11566
0.030212
-0.042114
0.064392
0.15381
0.059814
-0.031128
0.044861
0.10529
-0.0024414
-0.086975
-0.00061035
0.058594
-0.05249
-0.13275
-0.038147
0.027161
-0.080566
-0.15656
-0.06134
0.0030518
-0.1001
-0.16327
-0.053711
0.018005
-0.078125
-0.13519
-0.026855
0.041199
-0.033875
-0.0177
0.2243
0.48462
0.61554
0.77484
1.0196
1.109
0.90698
0.61493
0.36316
0.067139
-0.21759
-0.25055
-0.036316
0.07782
-0.02533
-0.083923
0.019531
0.059509
-0.055847
-0.091248
0.029297
0.071411
-0.044861
-0.078735
0.046082
0.090332
-0.021667
-0.049133
0.078735
0.12115
0.0073242
-0.018616
0.10742
0.14679
0.038452
0.024109
0.15656
0.19379
0.08606
0.077209
0.21484
0.25482
0.15198
0.14984
0.28625
0.31525
0.2002
0.18555
0.30304
0.30884
0.17822
0.16022
0.27527
0.27008
0.12268
0.080872
0.16418
0.13
-0.031128
-0.066223
0.031433
0.015259
-0.12146
-0.13214
-0.016479
-0.023804
-0.15076
-0.14648
-0.021362
-0.023804
-0.1474
-0.14191
-0.019226
-0.024414
-0.14343
-0.1297
-0.0042725
-0.012512
-0.12848
-0.1059
0.022278
0.0091553
-0.11383
-0.09491
0.031433
0.017395
-0.10071
-0.078125
0.04364
0.019531
-0.10406
-0.079956
0.04425
0.024109
-0.088501
-0.058594
0.056763
0.022583
-0.098572
-0.068054
0.045471
0.0054932
-0.11017
-0.07019
0.046082
0.0048828
-0.11078
-0.068665
0.047607
0.0057983
-0.1059
-0.059509
0.051575
0.0036621
-0.10681
-0.054321
0.058899
0.0079346
-0.1004
-0.04364
0.066528
0.010071
-0.10193
-0.045471
0.064392
0.0097656
-0.094299
-0.033875
0.070801
0.007019
-0.095825
-0.027161
0.080566
0.014954
-0.088806
-0.020752
0.082703
0.015259
-0.084229
-0.0091553
0.094299
0.024719
-0.070801
0.013123
0.13153
0.077515
-0.0018311
0.083923
0.18646
0.11749
0.027161
0.10376
0.18127
0.081177
-0.028992
0.038452
0.11627
0.022278
-0.073853
0.0045776
0.083008
-0.013428
-0.1062
-0.021362
0.059509
-0.03479
-0.11932
-0.021057
0.069275
-0.015259
-0.09552
-0.0048828
0.073547
-0.0048828
-0.029907
0.16846
0.40619
0.52551
0.68146
0.96344
1.131
1.0175
0.79407
0.6012
0.30457
-0.067444
-0.21637
-0.045471
0.10956
0.039673
-0.033569
0.058289
0.11414
0.007019
-0.053711
0.056458
0.11719
0.0097656
-0.043335
0.075989
0.1413
0.033875
-0.0177
0.1001
0.16235
0.059509
0.017395
0.13916
0.19714
0.094604
0.066528
0.20172
0.26031
0.15076
0.11444
0.24261
0.29388
0.18555
0.16205
0.30365
0.36255
0.2536
0.22278
0.34882
0.38391
0.25818
0.21454
0.32532
0.33997
0.19226
0.12665
0.20935
0.19684
0.032654
-0.033264
0.055847
0.053406
-0.088196
-0.12329
-0.007019
0.0094604
-0.11749
-0.13916
-0.01709
-0.0015259
-0.12604
-0.14038
-0.014343
0.0021362
-0.11993
-0.13
-0.0067139
0.0012207
-0.12238
-0.12329
0.011597
0.028687
-0.088806
-0.091553
0.029297
0.02655
-0.097046
-0.089417
0.04425
0.046082
-0.080566
-0.081482
0.040894
0.036926
-0.083923
-0.073547
0.050049
0.038452
-0.088501
-0.076904
0.049744
0.038757
-0.085754
-0.073547
0.046997
0.029297
-0.093384
-0.073853
0.048828
0.027771
-0.09491
-0.072937
0.048523
0.023804
-0.098267
-0.07019
0.052795
0.029297
-0.08728
-0.055847
0.063171
0.030518
-0.089417
-0.057373
0.060425
0.02533
-0.092468
-0.053406
0.067749
0.036621
-0.073547
-0.030823
0.07843
0.02655
-0.094299
-0.047607
0.074158
0.030212
-0.086975
-0.042419
0.072632
0.02594
-0.083618
-0.033264
0.079041
0.029297
-0.074768
-0.0085449
0.11749
0.079346
-0.014038
0.057068
0.17609
0.13
0.030518
0.090332
0.18738
0.11383
-0.0042725
0.04303
0.13
0.053101
-0.055542
0.0079346
0.10559
0.032654
-0.078125
-0.020142
0.072937
0.0057983
-0.083923
-0.0088501
0.084229
0.0091553
-0.083313
-0.0036621
0.093384
0.024719
-0.036621
0.11871
0.35004
0.4776
0.6308
0.93414
1.1728
1.1493
0.97595
0.80353
0.50018
0.050964
-0.21027
-0.10254
0.089417
0.079651
0.012817
0.083008
0.14435
0.045471
-0.028992
0.07019
0.15289
0.062561
-0.0091553
0.090942
0.17242
0.081482
0.013428
0.11688
0.19531
0.10376
0.036011
0.13733
0.21362
0.12634
0.074463
0.18799
0.2655
0.17639
0.12665
0.24139
0.31738
0.22797
0.18463
0.30731
0.38391
0.29297
0.24658
0.35767
0.40985
0.29297
0.22888
0.33081
0.37903
0.25909
0.18372
0.25696
0.26031
0.10345
0.016479
0.099792
0.12451
-0.0082397
-0.074768
0.019531
0.053406
-0.060425
-0.095215
0.022888
0.061035
-0.059204
-0.10345
0.0094604
0.045776
-0.06897
-0.10101
0.021667
0.061035
-0.052795
-0.08606
0.027161
0.056763
-0.055542
-0.076904
0.046692
0.074158
-0.045166
-0.069275
0.05127
0.075684
-0.04364
-0.065918
0.052795
0.072327
-0.048828
-0.065308
0.056763
0.078735
-0.038147
-0.053101
0.063171
0.071411
-0.05188
-0.064697
0.056458
0.070496
-0.04364
-0.046692
0.073242
0.077209
-0.043945
-0.049133
0.06958
0.073242
-0.042114
-0.039978
0.076904
0.070496
-0.05249
-0.051575
0.065918
0.062866
-0.050354
-0.040283
0.076599
0.064087
-0.054016
-0.038757
0.088806
0.091248
-0.0073242
0.024719
0.15656
0.15289
0.045776
0.06897
0.18341
0.15533
0.022583
0.024109
0.12024
0.083618
-0.038147
-0.021973
0.083923
0.049133
-0.073547
-0.052795
0.052795
0.020447
-0.092163
-0.06073
0.052185
0.024109
-0.079956
-0.039368
0.068665
0.026245
-0.081787
-0.022888
0.13733
0.19623
0.24872
0.51483
0.85938
1.0089
1.0117
1.0617
1.0144
0.65369
0.14923
-0.098267
-0.08667
-0.065613
-0.058899
0.048828
0.14496
0.064392
-0.05249
0.0094604
0.11719
0.06012
-0.037842
0.029602
0.13397
0.07019
-0.028992
0.041504
0.14679
0.085144
-0.0057983
0.068665
0.16968
0.10437
0.018005
0.10315
0.20905
0.14313
0.06012
0.15045
0.25665
0.19165
0.11505
0.2124
0.31982
0.25787
0.1886
0.28931
0.38666
0.30334
0.21179
0.28839
0.35858
0.26062
0.16724
0.23529
0.28076
0.14771
0.031738
0.092163
0.13672
0.0036621
-0.10803
-0.039673
0.017395
-0.089722
-0.16846
-0.073853
-0.005188
-0.10773
-0.177
-0.072937
-0.0021362
-0.10406
-0.16876
-0.064087
-0.0021362
-0.11414
-0.18066
-0.07019
-0.00091553
-0.10284
-0.15747
-0.04303
0.019836
-0.092773
-0.1535
-0.04364
0.010681
-0.10529
-0.1651
-0.05188
0.0073242
-0.099487
-0.14587
-0.030518
0.018311
-0.098267
-0.14618
-0.031128
0.010681
-0.10712
-0.14313
-0.012512
0.036926
-0.086365
-0.13214
-0.016479
0.020752
-0.1059
-0.14954
-0.028076
0.012817
-0.10284
-0.13489
-0.012817
0.021667
-0.095215
-0.1236
-0.0030518
0.020752
-0.10406
-0.13153
-0.011902
0.0079346
-0.12115
-0.14435
-0.019836
0.0079346
-0.10559
-0.11261
0.020752
0.046997
-0.063477
-0.063782
0.075073
0.099792
-0.014038
-0.015259
0.11017
0.10956
-0.033569
-0.062561
0.042114
0.036926
-0.090332
-0.096741
0.0177
0.0048828
-0.13
-0.13062
-0.0067139
-0.014954
-0.14526
-0.14008
-0.0079346
-0.007019
-0.12848
-0.1181
0.012817
0.0097656
-0.10773
-0.074768
0.10712
0.20844
0.26337
0.50629
0.85602
1.012
0.979
0.97992
0.92957
0.57922
0.068054
-0.16693
-0.096436
-0.033264
-0.06134
0.00030518
0.11749
0.079346
-0.046082
-0.0177
0.099487
0.068054
-0.043945
0.0057983
0.1355
0.10193
-0.020142
0.0177
0.14221
0.11108
-0.0021362
0.041809
0.16479
0.1358
0.035706
0.091858
0.2121
0.17273
0.072021
0.14038
0.27252
0.24109
0.14496
0.21362
0.34027
0.30304
0.21057
0.2832
0.39886
0.33905
0.22583
0.28198
0.38727
0.32135
0.20355
0.24475
0.31433
0.20538
0.052795
0.072632
0.13245
0.030212
-0.09613
-0.045166
0.038452
-0.049133
-0.15961
-0.093994
0.00091553
-0.075684
-0.1712
-0.088806
0.011292
-0.066223
-0.16205
-0.083008
0.015259
-0.062256
-0.15137
-0.067749
0.022888
-0.056152
-0.14038
-0.047302
0.046387
-0.036926
-0.12177
-0.035706
0.044861
-0.049438
-0.13397
-0.040283
0.044556
-0.047607
-0.12726
-0.030518
0.050049
-0.044556
-0.11993
-0.01709
0.063477
-0.0354
-0.11475
-0.021667
0.045776
-0.059204
-0.12939
-0.019531
0.055542
-0.048523
-0.12146
-0.018921
0.049744
-0.055847
-0.12024
-0.0097656
0.058899
-0.047607
-0.10681
0.013428
0.094299
0.0057983
-0.039368
0.082092
0.15289
0.054016
0.007019
0.11902
0.16479
0.033875
-0.040283
0.056458
0.098877
-0.019531
-0.075989
0.029297
0.064087
-0.063782
-0.11627
-0.0012207
0.046082
-0.072021
-0.1181
-0.00091553
0.043335
-0.06897
-0.10162
0.021057
0.056458
-0.060425
-0.081482
0.084839
0.21118
0.24475
0.43396
0.80292
1.0434
1.0443
1.037
1.0324
0.77026
0.2475
-0.11444
-0.12543
-0.05127
-0.060425
-0.011902
0.12268
0.12573
-0.014343
-0.036621
0.093689
0.11658
-0.0061035
-0.019226
0.10986
0.13092
0.014343
0.010071
0.14221
0.15656
0.038147
0.036621
0.16693
0.1767
0.058289
0.065002
0.20172
0.21484
0.10254
0.1181
0.2597
0.27069
0.16022
0.18036
0.32227
0.3302
0.21729
0.23804
0.3714
0.3653
0.23987
0.25055
0.37048
0.34576
0.20294
0.19714
0.2948
0.24384
0.083313
0.062866
0.14771
0.089722
-0.064697
-0.064392
0.045166
0.012207
-0.11353
-0.089722
0.028687
-0.0012207
-0.12177
-0.091248
0.027466
-0.0030518
-0.11871
-0.079651
0.038147
-0.00091553
-0.11719
-0.073242
0.046997
0.0057983
-0.11078
-0.061951
0.061646
0.021667
-0.094604
-0.047302
0.069885
0.025635
-0.08728
-0.038452
0.071106
0.017395
-0.093079
-0.035095
0.07782
0.021057
-0.093079
-0.036621
0.073853
0.016174
-0.094299
-0.03418
0.072327
0.012207
-0.089722
-0.024414
0.075989
0.0027466
-0.10651
-0.037231
0.068665
0.00061035
-0.10315
-0.032959
0.06958
0.0027466
-0.079956
0.018616
0.14099
0.078735
-0.010681
0.076904
0.18646
0.112
0.0076294
0.06897
0.14465
0.047607
-0.057678
0.013123
0.092468
-0.0057983
-0.10712
-0.028687
0.055237
-0.037842
-0.13397
-0.053711
0.027161
-0.062866
-0.1416
-0.042114
0.048523
-0.041199
-0.12512
-0.031738
0.05188
-0.02594
-0.056458
0.1355
0.36469
0.48004
0.63904
0.93719
1.1258
1.0312
0.82428
0.64026
0.32837
-0.087585
-0.27618
-0.11597
0.059204
0.0097656
-0.057068
0.031128
0.083923
-0.024414
-0.082703
0.032654
0.1004
-0.0054932
-0.062561
0.053711
0.11871
0.014038
-0.038757
0.076904
0.13611
0.027771
-0.019836
0.10132
0.16174
0.056458
0.01709
0.14435
0.20721
0.10803
0.081482
0.21942
0.2829
0.17944
0.14893
0.28229
0.34088
0.23804
0.2066
0.32684
0.36072
0.2359
0.19836
0.31525
0.33752
0.19165
0.12482
0.20599
0.19409
0.030518
-0.035095
0.055847
0.056152
-0.087891
-0.12939
-0.016785
-0.0030518
-0.13336
-0.15717
-0.029907
-0.0067139
-0.12726
-0.14343
-0.015564
-0.00030518
-0.12695
-0.1416
-0.012207
0.0042725
-0.12115
-0.13245
-0.0033569
0.012817
-0.10773
-0.11383
0.011902
0.017395
-0.10651
-0.10559
0.02533
0.032043
-0.091858
-0.093079
0.030212
0.02594
-0.099487
-0.092163
0.035095
0.028076
-0.10345
-0.097656
0.030823
0.028076
-0.093994
-0.083618
0.039063
0.02655
-0.097046
-0.084229
0.038757
0.023499
-0.097961
-0.076904
0.046387
0.025635
-0.096436
-0.072632
0.05249
0.030518
-0.091248
-0.063782
0.062256
0.049744
-0.050659
-0.0039673
0.12573
0.099487
-0.0039673
0.053101
0.1886
0.15198
0.017395
0.036621
0.13885
0.085449
-0.044861
-0.016479
0.087891
0.035095
-0.089417
-0.051575
0.055847
0.0042725
-0.11108
-0.059204
0.057068
0.0085449
-0.10315
-0.05188
0.06073
0.0061035
-0.10254
-0.042725
0.077515
0.053101
0.015564
0.20172
0.50446
0.6839
0.80536
1.0236
1.1801
1.0275
0.67505
0.37018
0.11749
-0.13184
-0.22186
-0.046997
0.13092
0.074463
-0.040588
0.0177
0.10895
0.03479
-0.056763
0.031128
0.14008
0.067139
-0.026245
0.056458
0.15808
0.079956
-0.012512
0.071716
0.16937
0.094604
0.013428
0.10925
0.20966
0.13184
0.05249
0.15015
0.25391
0.18616
0.12299
0.23102
0.32959
0.25177
0.18585
0.29694
0.39185
0.30396
0.22675
0.32318
0.40192
0.3009
0.21271
0.29297
0.34485
0.21729
0.11047
0.17395
0.20325
0.061035
-0.04364
0.034485
0.082092
-0.044861
-0.13
-0.031738
0.038147
-0.062256
-0.12573
-0.022278
0.034485
-0.07782
-0.13702
-0.020142
0.045776
-0.062866
-0.12268
-0.010376
0.05127
-0.054016
-0.10132
0.017395
0.072632
-0.042419
-0.093384
0.023499
0.073547
-0.043335
-0.093384
0.023499
0.071411
-0.042114
-0.079651
0.044556
0.089722
-0.032349
-0.076294
0.04303
0.084229
-0.0354
-0.071106
0.050354
0.085754
-0.040588
-0.079956
0.04303
0.079956
-0.039063
-0.068665
0.057373
0.090637
-0.030823
-0.060425
0.06134
0.08667
-0.040283
-0.065308
0.057068
0.082092
-0.037231
-0.05249
0.072937
0.084229
-0.047607
-0.060425
0.082397
0.12238
0.018921
0.020752
0.1532
0.17273
0.061646
0.067139
0.19775
0.19501
0.050659
0.028687
0.1413
0.13336
-0.0036621
-0.014038
0.10223
0.089722
-0.05249
-0.061951
0.057983
0.05249
-0.071716
-0.063782
0.062866
0.055542
-0.071716
-0.061951
0.064392
0.054321
-0.071106
-0.057068
0.083923
0.12299
0.11047
0.30243
0.65369
0.86945
0.93201
1.0535
1.1652
0.97198
0.52338
0.14709
-0.016174
-0.11597
-0.15503
-0.020447
0.14801
0.11505
-0.02655
-0.010986
0.10376
0.077209
-0.031433
0.0094604
0.1297
0.09491
-0.015259
0.033875
0.15656
0.11383
-0.0042725
0.04303
0.17181
0.14069
0.033264
0.082397
0.19928
0.15747
0.054932
0.11475
0.24445
0.21179
0.12115
0.19409
0.32257
0.28076
0.17975
0.24475
0.36469
0.32013
0.22156
0.27954
0.37415
0.2948
0.17853
0.23438
0.32379
0.22491
0.076294
0.098267
0.16327
0.062256
-0.065918
-0.018616
0.061646
-0.031433
-0.14771
-0.083008
0.014343
-0.059509
-0.15533
-0.079346
0.013733
-0.06897
-0.16663
-0.086975
0.0036621
-0.083008
-0.17639
-0.083923
0.020447
-0.055542
-0.14526
-0.062561
0.023499
-0.064087
-0.14923
-0.058899
0.028381
-0.059509
-0.13885
-0.043335
0.036316
-0.061951
-0.14099
-0.031128
0.067749
-0.016785
-0.096436
-0.0061035
0.064392
-0.038757
-0.11841
-0.022278
0.05127
-0.049438
-0.12299
-0.021667
0.046997
-0.06073
-0.13763
-0.042725
0.01709
-0.090942
-0.15533
-0.042725
0.024109
-0.075989
-0.12543
-0.00030518
0.066833
-0.05249
-0.12421
-0.018005
0.039368
-0.076904
-0.14557
-0.045471
0.0042725
-0.10162
-0.13611
-0.005188
0.044861
-0.089722
-0.16022
-0.045166
0.020447
-0.082092
-0.1297
-0.025024
0.0061035
-0.11566
-0.14893
-0.010376
0.040588
-0.089417
-0.14282
-0.021057
0.030518
-0.089722
-0.14557
-0.036621
0.010986
-0.07843
-0.084229
0.049133
0.077515
-0.045166
-0.066833
0.063782
0.085144
-0.058899
-0.10773
0.0039673
0.023499
-0.10803
-0.1416
-0.032959
-0.032654
-0.18158
-0.21851
-0.10254
-0.092163
-0.22766
-0.25208
-0.12451
-0.098572
-0.21484
-0.22156
-0.092163
-0.076599
-0.19623
-0.19226
-0.024414
0.072021
0.10468
0.31647
0.67139
0.85754
0.82886
0.80963
0.77087
0.45593
-0.045166
-0.29877
-0.23224
-0.15594
-0.19745
-0.16785
-0.058289
-0.090332
-0.23346
-0.23499
-0.10254
-0.094604
-0.20142
-0.18066
-0.054321
-0.067749
-0.18768
-0.16541
-0.032043
-0.047302
-0.18097
-0.17914
-0.058594
-0.058289
-0.14862
-0.099487
0.040283
0.027161
-0.087585
-0.058289
0.071716
0.06012
-0.039368
0.0088501
0.14832
0.13672
0.027466
0.060425
0.17822
0.14893
0.042114
0.08728
0.20477
0.15503
0.014038
0.021973
0.10498
0.027466
-0.13062
-0.13123
-0.056763
-0.13519
-0.27588
-0.24353
-0.1416
-0.2066
-0.33051
-0.27771
-0.17059
-0.24933
-0.38666
-0.32867
-0.21088
-0.27924
-0.39764
-0.30121
-0.13855
-0.19073
-0.3302
-0.27893
-0.15228
-0.20966
-0.33752
-0.28839
-0.17151
-0.21454
-0.31006
-0.2478
-0.15381
-0.23224
-0.33936
-0.26123
-0.14313
-0.19745
-0.28961
-0.22247
-0.13184
-0.21027
-0.30579
-0.22156
-0.11536
-0.18799
-0.28809
-0.22034
-0.13428
-0.21667
-0.31097
-0.23254
-0.13519
-0.20874
-0.29297
-0.20508
-0.11017
-0.1886
-0.27985
-0.19867
-0.11047
-0.19531
-0.29022
-0.21362
-0.12604
-0.20386
-0.28687
-0.20386
-0.11627
-0.19928
-0.29266
-0.21362
-0.11383
-0.17273
-0.2478
-0.1709
-0.083923
-0.15656
-0.24597
-0.17303
-0.075378
-0.13672
-0.2301
-0.16571
-0.054321
-0.10284
-0.23499
-0.21179
-0.062866
-0.032654
-0.14557
-0.19318
-0.11688
-0.079346
-0.14526
-0.17365
-0.097961
-0.066528
-0.15198
-0.2002
-0.12573
-0.072327
-0.1355
-0.18372
-0.14191
-0.097351
-0.071106
-0.0097656
0.048523
0.010681
-0.055542
-0.016785
0.04303
-0.024719
-0.11841
-0.073547
0.00030518
-0.062256
-0.15106
-0.096436
-0.016785
-0.091553
-0.20691
-0.14557
0.0073242
-0.084839
-0.40863
-0.35278
0.15045
0.36652
-0.06012
-0.44128
-0.15045
0.22949
-0.0012207
-0.28351
0.13367
0.7196
0.69183
0.55176
0.9903
1.4059
0.99701
0.34088
0.23895
0.25665
-0.22614
-0.61249
-0.23071
0.33905
0.26733
-0.18127
-0.29572
-0.12329
-0.07782
-0.11169
-0.057983
-0.057983
-0.14404
-0.094604
0.055847
0.0094604
-0.18005
-0.044861
0.33997
0.24841
-0.2594
-0.336
0.18372
0.40192
-0.052185
-0.21484
0.31647
0.44403
-0.17944
-0.29846
0.46783
0.72815
-0.025024
-0.29083
0.50262
0.80292
-0.0048828
-0.30518
0.50568
0.77972
-0.089722
-0.37598
0.49561
0.74005
-0.22858
-0.53711
0.40192
0.66711
-0.37567
-0.7489
0.20386
0.49866
-0.53772
-0.8786
0.14404
0.47302
-0.57709
-0.92529
0.10529
0.43182
-0.61768
-0.93597
0.11353
0.41321
-0.6604
-0.95703
0.112
0.39185
-0.69336
-0.96161
0.12909
0.3894
-0.7074
-0.96283
0.12695
0.35797
-0.74707
-0.97382
0.12482
0.33386
-0.77515
-0.97504
0.1297
0.31219
-0.80658
-0.99182
0.11383
0.29144
-0.79895
-0.95337
0.12695
0.24017
-0.85785
-0.95947
0.13062
0.19257
-0.92987
-1.0043
0.097046
0.12146
-1.019
-1.0544
0.074158
0.083618
-1.0605
-1.0632
0.083313
0.071411
-1.0852
-1.0629
0.098877
0.07843
-1.066
-1.0159
0.13947
0.07782
-1.0773
-0.99182
0.17242
0.074768
-1.0834
-0.95551
0.21851
0.07782
-1.1121
-0.95978
0.24414
0.092773
-1.1038
-0.93628
0.26184
0.090637
-1.0822
-0.85144
0.37567
0.17517
-1.0214
-0.78125
0.43732
0.19806
-1.022
-0.78796
0.39734
0.10986
-1.1029
-0.81757
0.38483
0.06958
-1.1459
-0.82581
0.37964
0.035706
-1.1856
-0.84656
0.36163
0.0042725
-1.1862
-0.78644
0.43488
0.032654
-1.1887
-0.77393
0.49072
0.17639
-0.88348
-0.25848
1.1954
1.001
-0.055237
0.39612
1.5079
0.88226
-0.67291
-0.69489
0.25085
-0.036316
-0.96497
-0.58319
0.38818
0.030823
-0.88043
-0.49622
0.36652
-0.090332
-0.94574
-0.45563
0.40161
-0.1413
-1.0092
-0.41504
0.52399
-0.030518
-0.9552
-0.40009
0.50018
-0.10712
-1.0123
-0.36041
0.57831
-0.070496
-0.97076
-0.26276
0.68146
-0.010376
-0.91156
-0.15594
0.77637
0.024109
-0.86853
-0.052185
0.87921
0.093689
-0.77515
0.072937
0.95795
0.10681
-0.76141
0.091248
1.2909
1.1172
0.054016
-0.33417
-0.30548
-0.4483
-0.2475
0.11627
-0.86243
-2.4283
-2.1414
-0.074158
1.022
-0.015564
-0.84351
0.06073
0.75287
-0.15503
-0.77423
0.16022
0.76141
-0.17273
-0.72144
0.23773
0.77423
-0.18097
-0.66681
0.32135
0.8078
-0.18494
-0.64514
0.35889
0.80383
-0.21027
-0.63263
0.39246
0.80109
-0.23987
-0.63873
0.40009
0.77972
-0.27496
-0.6427
0.4068
0.7431
-0.33539
-0.66742
0.41626
0.73914
-0.35919
-0.6842
0.40161
0.70343
-0.41565
-0.76355
0.31769
0.66193
-0.38849
-0.67993
0.40619
0.73578
-0.32166
-0.67535
0.34821
0.69092
-0.30731
-0.62195
0.37231
0.69366
-0.25024
-0.51331
0.46082
0.71716
-0.25177
-0.46173
0.56152
0.79102
-0.23895
-0.46234
0.57739
0.79529
-0.26062
-0.47791
0.58319
0.79865
-0.26764
-0.46783
0.60028
0.78186
-0.30182
-0.45898
0.64117
0.78369
-0.3299
-0.42999
0.72906
0.83099
-0.34424
-0.40436
0.82855
0.91217
-0.32501
-0.38849
0.8667
0.90271
-0.40863
-0.47302
0.80383
0.80414
-0.53284
-0.54352
0.78278
0.74921
-0.62592
-0.61035
0.74493
0.67352
-0.72693
-0.66406
0.72815
0.63263
-0.78339
-0.67841
0.73975
0.61432
-0.79895
-0.61096
0.92468
0.93597
-0.26947
0.13947
1.7484
1.6254
0.14069
0.14923
1.2259
0.57617
-1.1221
-0.90942
0.62958
0.45074
-0.96222
-0.69458
0.72937
0.44067
-0.98602
-0.70099
0.74005
0.52216
-0.82886
-0.59113
0.74524
0.58289
-0.62012
-0.40466
0.7663
0.55786
-0.60455
-0.49927
0.6485
0.81757
0.016479
-0.027161
0.76569
1.0193
0.41321
-0.075378
0.085144
0.44464
0.62714
0.63934
0.56549
0.54779
0.64606
0.70343
0.62744
0.58807
0.67596
0.71136
0.6076
0.55695
0.6366
0.63629
0.48035
0.40039
0.46783
0.4599
0.30457
0.23834
0.32867
0.33936
0.20447
0.16327
0.27588
0.29999
0.17731
0.15137
0.27313
0.29816
0.17334
0.14893
0.2713
0.29572
0.17731
0.16144
0.28625
0.30365
0.17975
0.17517
0.30884
0.3125
0.16357
0.15106
0.29663
0.31555
0.17578
0.17151
0.32593
0.33539
0.17487
0.15564
0.30548
0.32013
0.17395
0.16724
0.31525
0.31311
0.15076
0.14069
0.29266
0.29755
0.14496
0.1416
0.29419
0.30243
0.15259
0.13947
0.271
0.27069
0.14008
0.15015
0.2829
0.26855
0.12512
0.12665
0.2533
0.24414
0.11963
0.1297
0.242
0.21729
0.10315
0.14038
0.26764
0.23712
0.10895
0.13519
0.25543
0.22583
0.1062
0.1355
0.24475
0.20172
0.083313
0.12634
0.24872
0.21393
0.11078
0.17578
0.31189
0.27832
0.16693
0.22034
0.34332
0.29785
0.18005
0.21667
0.29327
0.19775
0.06897
0.13885
0.25452
0.17059
0.037842
0.10437
0.21545
0.12329
-0.015564
0.075073
0.22186
0.13367
-0.024719
0.047607
0.19836
0.12665
-0.029907
0.035706
0.20935
0.22064
0.21545
0.4834
0.85968
1.012
1.044
1.2128
1.3062
0.99457
0.46753
0.14923
0.070496
-0.014038
-0.040588
0.12878
0.27679
0.16479
0.0061035
0.086365
0.21729
0.12726
-0.0036621
0.089111
0.21759
0.12451
0.0079346
0.12329
0.25818
0.15167
0.016479
0.11902
0.2597
0.17792
0.070801
0.18799
0.3183
0.21545
0.097961
0.20752
0.33539
0.24139
0.14038
0.26184
0.37933
0.27466
0.18311
0.32898
0.46021
0.34546
0.23163
0.35339
0.47241
0.35797
0.2475
0.35065
0.42328
0.26184
0.11963
0.19928
0.24384
0.057373
-0.08667
0.010376
0.079651
-0.068054
-0.16541
-0.037842
0.038757
-0.076904
-0.1123
-0.011597
-0.042114
-0.19562
-0.12695
0.12207
0.11108
-0.12329
-0.093384
0.15503
0.12238
-0.11993
-0.050659
0.23102
0.17548
-0.11078
-0.036011
0.26825
0.19165
-0.13428
-0.059814
0.27466
0.20203
-0.14374
-0.075989
0.27161
0.21118
-0.14587
-0.097351
0.2655
0.23804
-0.15289
-0.23804
0.065308
0.14954
-0.097046
-0.18494
-0.018921
0.011292
-0.15686
-0.17731
-0.0073242
0.028687
-0.11078
-0.12115
0.032654
0.050659
-0.089111
-0.10345
0.020142
0.016174
-0.10468
-0.083923
0.0015259
-0.11505
-0.25909
-0.13306
0.067444
-0.04425
-0.25116
-0.11688
0.08667
-0.064697
-0.26215
-0.037231
0.26733
0.12054
-0.12207
0.090332
0.37903
0.19775
-0.056458
0.17365
0.45715
0.24231
-0.020142
0.23285
0.52765
0.28809
-0.0039673
0.25146
0.55847
0.33234
0.06073
0.32898
0.63599
0.41107
0.16266
0.45654
0.75226
0.5014
0.25055
0.55878
0.85541
0.58594
0.31494
0.59448
0.85114
0.55908
0.30212
0.60089
0.84625
0.54199
0.31616
0.65979
0.90881
0.58105
0.36102
0.74158
1.0123
0.68054
0.46051
0.84351
1.0983
0.74432
0.53558
0.96771
1.3022
1.0812
1.0791
1.7261
2.1832
1.955
1.8002
2.1155
2.0587
1.2399
0.6662
0.92957
1.1966
0.89569
0.73395
1.1377
1.3232
0.90332
0.70923
1.138
1.3412
0.92896
0.75012
1.1816
1.3583
0.91156
0.72632
1.1823
1.3956
0.98175
0.80048
1.2192
1.3901
0.96863
0.80627
1.2332
1.398
0.98389
0.8429
1.2723
1.4267
1.0138
0.88257
1.3208
1.4819
1.0776
0.92957
1.326
1.4731
1.1008
0.97992
1.3507
1.4557
1.0648
0.93231
1.2558
1.2854
0.85052
0.71808
1.0461
1.059
0.6076
0.50293
0.87891
0.90973
0.44769
0.33997
0.7547
0.82642
0.37048
0.26001
0.67749
0.75226
0.30792
0.22064
0.63202
0.65155
0.15625
0.072021
0.5307
0.58685
0.11414
0.059204
0.53345
0.56915
0.071106
0.027771
0.52612
0.57434
0.099487
0.08606
0.58411
0.58746
0.071106
0.062256
0.58258
0.59082
0.06897
0.066528
0.59265
0.60577
0.093994
0.09552
0.59692
0.57312
0.061035
0.084839
0.60638
0.60333
0.11169
0.12939
0.60699
0.57007
0.088501
0.11597
0.5658
0.50659
0.040588
0.094604
0.54321
0.4715
0.0030518
0.042419
0.4657
0.39337
-0.045776
0.013733
0.4248
0.33722
-0.12207
-0.10101
0.29724
0.2655
-0.14496
-0.15442
0.21729
0.24475
-0.080566
-0.1001
0.17334
0.14923
-0.14099
-0.12238
0.16235
0.14465
-0.14221
-0.13306
0.14526
0.13458
-0.12909
-0.10834
0.1535
0.12421
-0.14221
-0.10162
0.16449
0.098877
-0.19348
-0.12634
0.19257
0.15625
-0.13367
-0.049438
0.29633
0.24139
-0.087585
-0.0036621
0.37384
0.33783
-0.0091553
0.038757
0.3833
0.33875
0.042419
0.1828
0.57098
0.47058
0.10864
0.28015
0.74768
0.68207
0.28107
0.39429
0.84045
0.7724
0.3717
0.49469
0.95886
0.92102
0.59021
0.85968
1.524
1.6638
1.4304
1.6833
2.2095
2.0389
1.3101
0.97382
1.0373
0.76691
0.33081
0.49591
1.0086
0.97595
0.52948
0.52277
0.87677
0.82367
0.45044
0.47913
0.8078
0.75317
0.41443
0.44342
0.73822
0.67902
0.37048
0.40192
0.66559
0.60425
0.3421
0.41443
0.67444
0.59723
0.34637
0.44128
0.7074
0.64148
0.4068
0.49255
0.72937
0.65948
0.46875
0.59387
0.8017
0.66254
0.43671
0.56
0.73669
0.54199
0.30823
0.48645
0.70038
0.45837
0.14679
0.30304
0.54596
0.32684
0.010681
0.15472
0.39154
0.18707
-0.075073
0.13885
0.41351
0.20447
-0.068665
0.1474
0.41931
0.20172
-0.05249
0.21118
0.50232
0.24811
-0.039368
0.24292
0.57556
0.336
0.044861
0.34424
0.68176
0.40588
0.094299
0.4248
0.8075
0.53375
0.20294
0.53223
0.90393
0.59479
0.25024
0.60608
0.98938
0.65582
0.29663
0.6781
1.0849
0.74005
0.36987
0.75958
1.1493
0.74524
0.34637
0.77271
1.2119
0.82123
0.4071
0.81635
1.2408
0.83008
0.40924
0.8313
1.257
0.84595
0.448
0.88196
1.2823
0.84473
0.46265
0.92773
1.3211
0.85541
0.46692
0.93445
1.2848
0.76569
0.38422
0.90912
1.3101
0.80017
0.40375
0.91278
1.3174
0.82794
0.45288
0.96649
1.3565
0.86395
0.50446
1.0272
1.4246
0.93811
0.5545
1.0349
1.4142
0.95367
0.58807
1.0251
1.3467
0.87555
0.49408
0.8606
1.1209
0.68085
0.38055
0.75287
0.98175
0.57892
0.34119
0.68695
0.8197
0.39001
0.20355
0.57404
0.68756
0.27954
0.16388
0.54626
0.63293
0.28442
0.32471
0.88379
1.1295
0.95764
1.1481
1.6595
1.5735
0.87494
0.44098
0.38788
0.054932
-0.3833
-0.18433
0.35156
0.32867
-0.064087
0.021057
0.3656
0.177
-0.23682
-0.05249
0.3775
0.18646
-0.26581
-0.085754
0.36499
0.19409
-0.23804
-0.070496
0.33691
0.13519
-0.27954
-0.052795
0.3772
0.16022
-0.26855
-0.039063
0.39398
0.16754
-0.23712
0.044556
0.5069
0.27344
-0.15381
0.10834
0.56976
0.3418
-0.086975
0.16205
0.5954
0.35461
-0.06012
0.20203
0.61859
0.32288
-0.1712
0.031433
0.42236
0.14557
-0.31128
-0.097046
0.28503
0.0067139
-0.41565
-0.159
0.2301
-0.058594
-0.4718
-0.18524
0.22552
-0.070801
-0.49072
-0.20172
0.21271
-0.073242
-0.47668
-0.1828
0.2179
-0.076904
-0.46265
-0.14984
0.24261
-0.075378
-0.46173
-0.13092
0.26764
-0.046692
-0.43365
-0.112
0.28137
-0.031433
-0.40741
-0.093689
0.26794
-0.048523
-0.40405
-0.075684
0.28168
-0.030823
-0.35675
-0.026245
0.28961
-0.06134
-0.37994
-0.020447
0.30487
-0.047607
-0.34271
0.037842
0.33081
-0.065308
-0.3717
0.028992
0.33722
-0.069275
-0.36926
0.041809
0.32898
-0.084229
-0.37109
0.061035
0.34424
-0.09613
-0.38177
0.057678
0.336
-0.10498
-0.3775
0.06012
0.30975
-0.14557
-0.39276
0.077515
0.33051
-0.14984
-0.4248
0.048218
0.31799
-0.10864
-0.31494
0.15594
0.36041
-0.13885
-0.35614
0.14923
0.3714
-0.12878
-0.32898
0.20325
0.43091
-0.071106
-0.26215
0.2652
0.46844
-0.06012
-0.25604
0.26489
0.43427
-0.11688
-0.30487
0.2356
0.40192
-0.15045
-0.32227
0.21759
0.36377
-0.2005
-0.35065
0.21271
0.36072
-0.1947
-0.31281
0.27649
0.41321
-0.16113
-0.2774
0.3299
0.51147
0.044556
0.1181
0.94666
1.3016
0.9024
0.89874
1.4569
1.355
0.40741
-0.076294
0.2774
0.33936
-0.1416
-0.13123
0.46722
0.50903
-0.094299
-0.15381
0.42999
0.47394
-0.112
-0.14679
0.44403
0.48462
-0.086975
-0.075684
0.53528
0.55542
-0.04364
-0.061951
0.53711
0.56702
0.0088501
0.030823
0.62408
0.61737
0.045166
0.079956
0.68695
0.69214
0.13641
0.18738
0.77545
0.75134
0.19806
0.27466
0.8667
0.81757
0.23926
0.30701
0.89691
0.8429
0.271
0.33539
0.89325
0.79071
0.17975
0.21484
0.737
0.60638
-0.0045776
0.049744
0.5838
0.46936
-0.10437
-0.021973
0.52612
0.43488
-0.097046
0.016479
0.54749
0.42816
-0.10681
0.0054932
0.53497
0.43091
-0.073853
0.059509
0.57129
0.43213
-0.094604
0.024414
0.54291
0.43701
-0.067444
0.044556
0.56152
0.48492
0.0021362
0.075989
0.52307
0.4248
-0.040283
0.028076
0.45929
0.3894
-0.015564
0.074158
0.48218
0.39032
-0.016479
0.055542
0.43121
0.36438
0.019836
0.11566
0.45105
0.32471
-0.027466
0.1001
0.47028
0.36957
0.026855
0.12299
0.41748
0.26367
-0.072937
0.063171
0.38818
0.25574
-0.049744
0.09613
0.37689
0.20447
-0.079041
0.12146
0.41321
0.20599
-0.092163
0.12421
0.40771
0.17761
-0.11871
0.091858
0.34119
0.066223
-0.25024
-0.013733
0.28473
0.055237
-0.2475
-0.056458
0.21027
0.016785
-0.26794
-0.1181
0.16296
0.085449
-0.1178
-0.038757
0.13397
0.069885
-0.058594
0.005188
0.073547
-0.057068
-0.17914
-0.092773
-0.010376
-0.13123
-0.23895
-0.13763
-0.062866
-0.20721
-0.29785
-0.14587
-0.030518
-0.17761
-0.3183
-0.19897
-0.076599
-0.19684
-0.30548
-0.17639
-0.065308
-0.1709
-0.19196
0.099792
0.41992
0.51453
0.62042
0.91156
1.0614
0.79407
0.40527
0.16357
-0.083008
-0.4007
-0.45868
-0.16785
-0.0097656
-0.20203
-0.31738
-0.10284
0.026245
-0.16846
-0.25177
0.011292
0.15717
-0.049438
-0.13672
0.13123
0.26642
0.020142
-0.093384
0.18158
0.32715
0.094604
0
0.27252
0.38055
0.11047
0.02655
0.34424
0.48676
0.2356
0.15594
0.44922
0.53833
0.25452
0.19867
0.52979
0.62286
0.31738
0.25391
0.58594
0.66071
0.33478
0.26978
0.59265
0.62531
0.24994
0.15259
0.44037
0.41656
0.030212
-0.0030518
0.34515
0.31799
-0.10803
-0.13947
0.24414
0.24017
-0.16052
-0.14984
0.25604
0.23163
-0.19714
-0.17792
0.25269
0.23926
-0.18524
-0.15167
0.29602
0.28961
-0.14893
-0.15869
0.27313
0.30426
-0.05188
-0.027161
0.32501
0.2655
-0.095215
-0.013428
0.3479
0.24445
-0.11169
0.039978
0.43304
0.27618
-0.13214
0.028687
0.45258
0.29694
-0.1236
0.038147
0.46722
0.30548
-0.13062
0.012207
0.42603
0.2774
-0.12848
0.018616
0.40924
0.25146
-0.1413
0.010071
0.38757
0.23224
-0.16296
-0.04425
0.31311
0.18585
-0.17975
-0.082397
0.2594
0.18188
-0.15869
-0.13489
0.13641
0.090027
-0.2002
-0.23438
-0.059204
-0.089417
-0.31342
-0.35461
-0.23346
-0.26215
-0.40161
-0.38696
-0.271
-0.31189
-0.44342
-0.40192
-0.25543
-0.27313
-0.39429
-0.35675
-0.22064
-0.24323
-0.37323
-0.35187
-0.23132
-0.26611
-0.40466
-0.39856
-0.29999
-0.34668
-0.47668
-0.45044
-0.33569
-0.37506
-0.49896
-0.46936
-0.35706
-0.40039
-0.52368
-0.48676
-0.37018
-0.41351
-0.5307
-0.48004
-0.35339
-0.39001
-0.48798
-0.38452
-0.15045
-0.016479
0.097351
0.38513
0.69702
0.76355
0.63171
0.48401
0.23254
-0.23346
-0.6076
-0.59418
-0.38666
-0.35309
-0.44189
-0.39673
-0.29785
-0.36163
-0.47424
-0.41351
-0.30334
-0.36377
-0.46967
-0.39948
-0.28198
-0.33936
-0.44067
-0.36774
-0.25177
-0.30792
-0.40222
-0.32623
-0.22217
-0.29114
-0.38086
-0.28534
-0.16541
-0.22766
-0.31464
-0.21851
-0.097961
-0.159
-0.24292
-0.14252
-0.019836
-0.07782
-0.15381
-0.056458
0.046082
-0.030518
-0.11475
-0.028992
0.045471
-0.064087
-0.16663
-0.092773
-0.046997
-0.19379
-0.3186
-0.24902
-0.20294
-0.3421
-0.44525
-0.34698
-0.27679
-0.39978
-0.4834
-0.3656
-0.2832
-0.39551
-0.47058
-0.35583
-0.28198
-0.39764
-0.46814
-0.34485
-0.27008
-0.38544
-0.44952
-0.32715
-0.26276
-0.38208
-0.44434
-0.31677
-0.24933
-0.36804
-0.4248
-0.29724
-0.23621
-0.35919
-0.41382
-0.28229
-0.22461
-0.35797
-0.4303
-0.31128
-0.24658
-0.35583
-0.40527
-0.29053
-0.24902
-0.3717
-0.41321
-0.28625
-0.24139
-0.37018
-0.41412
-0.28442
-0.24078
-0.3714
-0.41626
-0.2887
-0.24445
-0.36865
-0.40314
-0.27283
-0.23407
-0.35828
-0.38361
-0.23804
-0.17975
-0.27924
-0.28351
-0.13733
-0.098572
-0.21881
-0.23956
-0.11414
-0.10773
-0.26031
-0.29907
-0.18372
-0.18158
-0.32776
-0.35156
-0.22064
-0.21179
-0.3537
-0.36804
-0.23254
-0.22552
-0.3714
-0.38391
-0.23865
-0.21606
-0.34668
-0.35248
-0.20874
-0.18921
-0.31708
-0.29999
-0.082397
0.08728
0.18951
0.44098
0.79987
0.95856
0.86639
0.71716
0.51544
0.089417
-0.37079
-0.48492
-0.29541
-0.19409
-0.26886
-0.26031
-0.14954
-0.17151
-0.29541
-0.2655
-0.12268
-0.14099
-0.27405
-0.24567
-0.1001
-0.11505
-0.24353
-0.20874
-0.068359
-0.1004
-0.23499
-0.18951
-0.036621
-0.061951
-0.19409
-0.14648
0.0079346
-0.012207
-0.12939
-0.065613
0.089111
0.053406
-0.069275
0.0042725
0.16968
0.13855
0.0094604
0.072632
0.21851
0.16479
0.028992
0.090027
0.22156
0.13947
-0.021973
0.021362
0.12238
-0.00091553
-0.19287
-0.15503
-0.038452
-0.13885
-0.30426
-0.24475
-0.11871
-0.21057
-0.35797
-0.27679
-0.13855
-0.22766
-0.37109
-0.28717
-0.15045
-0.24017
-0.37598
-0.27954
-0.13184
-0.21423
-0.35065
-0.26917
-0.1358
-0.21545
-0.34393
-0.26428
-0.13947
-0.21301
-0.32349
-0.23865
-0.12482
-0.20203
-0.30304
-0.21118
-0.10559
-0.19226
-0.29205
-0.19806
-0.093994
-0.18524
-0.28656
-0.19287
-0.095825
-0.19196
-0.28992
-0.19135
-0.093994
-0.19379
-0.29266
-0.1947
-0.096741
-0.1889
-0.27191
-0.16388
-0.078735
-0.19409
-0.29388
-0.18646
-0.089417
-0.19165
-0.28229
-0.17792
-0.086365
-0.18127
-0.25574
-0.14526
-0.059814
-0.14923
-0.19775
-0.064087
0.016785
-0.093994
-0.15076
-0.010071
0.067749
-0.075378
-0.18433
-0.08728
-0.022583
-0.14618
-0.22522
-0.11536
-0.057678
-0.19104
-0.26978
-0.15594
-0.092468
-0.21637
-0.27374
-0.13702
-0.065308
-0.1889
-0.24994
-0.12177
-0.058289
-0.18311
-0.2301
-0.074768
0.038757
0.01709
0.14313
0.52185
0.83527
0.91034
0.97382
1.0803
0.91339
0.3894
-0.086975
-0.21057
-0.1886
-0.21149
-0.16266
-0.0042725
0.024719
-0.12878
-0.18494
-0.058289
-0.015869
-0.13611
-0.15869
-0.01709
0.018311
-0.11536
-0.14069
0.0012207
0.032349
-0.098572
-0.10925
0.041504
0.061035
-0.084229
-0.085144
0.087585
0.11719
-0.032654
-0.041504
0.13123
0.16815
0.033569
0.044861
0.22552
0.24933
0.10315
0.11658
0.29968
0.3244
0.1709
0.16205
0.31403
0.30121
0.12878
0.12085
0.26123
0.22308
0.023804
-0.007019
0.11322
0.056458
-0.14557
-0.15808
-0.014343
-0.048828
-0.22888
-0.21637
-0.054626
-0.082703
-0.25543
-0.23285
-0.063171
-0.08728
-0.24902
-0.21088
-0.036316
-0.06958
-0.24597
-0.21423
-0.041199
-0.077515
-0.24536
-0.19501
-0.010681
-0.046082
-0.22125
-0.17761
-0.0027466
-0.047302
-0.21576
-0.15991
0.012512
-0.048828
-0.22858
-0.16785
0.014343
-0.039673
-0.21393
-0.15259
0.019531
-0.04364
-0.21912
-0.15564
0.0094604
-0.064392
-0.23376
-0.15411
0.019836
-0.052795
-0.22369
-0.14496
0.025024
-0.057983
-0.2356
-0.16479
0.0036621
-0.064392
-0.2179
-0.1358
0.016785
-0.071106
-0.22858
-0.13702
0.026245
-0.054321
-0.20569
-0.12207
0.023499
-0.065308
-0.21149
-0.12024
0.018921
-0.078735
-0.21606
-0.10712
0.043335
-0.054321
-0.19928
-0.10315
0.032349
-0.064697
-0.18738
-0.059204
0.096436
0.0030518
-0.12299
-0.0057983
0.13672
0.037231
-0.081787
0.0354
0.14709
-0.0030518
-0.16388
-0.058899
0.065918
-0.055542
-0.18799
-0.073547
0.042419
-0.088196
-0.20844
-0.07782
0.038452
-0.10254
-0.22797
-0.090332
0.038147
-0.090637
-0.20782
-0.071716
0.056763
-0.036011
-0.055542
0.22919
0.54016
0.63385
0.75714
1.0791
1.2668
1.0327
0.64087
0.36377
0.095215
-0.21484
-0.28412
-0.035706
0.11841
-0.026245
-0.1416
-0.0088501
0.079041
-0.064697
-0.14679
0.010986
0.10651
-0.036316
-0.11841
0.031128
0.11292
-0.033875
-0.11017
0.046387
0.13184
-0.0085449
-0.070496
0.098267
0.17822
0.02533
-0.048828
0.11688
0.21606
0.090027
0.029297
0.18829
0.28564
0.17517
0.12543
0.27069
0.34241
0.22095
0.17242
0.30762
0.36438
0.23438
0.17914
0.30121
0.336
0.18127
0.10101
0.18524
0.18005
-0.00091553
-0.086975
0.0091553
0.022888
-0.13062
-0.18219
-0.059204
-0.027466
-0.16235
-0.19531
-0.058289
-0.024719
-0.16327
-0.20142
-0.067749
-0.036316
-0.1709
-0.19562
-0.050659
-0.015564
-0.15259
-0.18097
-0.038147
0.0021362
-0.12512
-0.14954
-0.017395
0.0039673
-0.12939
-0.14282
0.00030518
0.023499
-0.11444
-0.13214
0.0094604
0.028076
-0.11719
-0.14496
-0.0097656
0.0097656
-0.12726
-0.14526
-0.0042725
0.025024
-0.10376
-0.12512
-0.0015259
0.0091553
-0.12329
-0.13428
-0.005188
0.0027466
-0.13062
-0.14038
-0.0042725
0.0085449
-0.12665
-0.14221
-0.018005
-0.0094604
-0.13245
-0.13214
0.00061035
0.0061035
-0.12482
-0.13123
-0.0073242
-0.010071
-0.13458
-0.12543
0.0073242
0.00061035
-0.1355
-0.13397
-0.0021362
-0.0033569
-0.12787
-0.11688
0.011902
0.0030518
-0.1239
-0.10956
0.017395
0.0021362
-0.12421
-0.10529
0.024109
0.0067139
-0.12115
-0.1004
0.031433
0.011902
-0.11719
-0.093994
0.043335
0.044861
-0.054932
-0.0082397
0.13
0.11353
-0.005188
0.024109
0.1413
0.097046
-0.043945
-0.027466
0.083923
0.039978
-0.09491
-0.071716
0.038452
-0.0054932
-0.1297
-0.090332
0.028992
-0.016479
-0.14404
-0.1062
0.014038
-0.027466
-0.14221
-0.092773
0.025635
-0.018616
-0.11292
0.0027466
0.24231
0.37781
0.4953
0.78888
1.0999
1.1594
1.0184
0.85846
0.58899
0.12543
-0.22247
-0.18646
0.018311
0.030823
-0.067749
-0.022888
0.070496
-0.00061035
-0.11078
-0.04364
0.068054
0.0085449
-0.090942
-0.01709
0.091248
0.025024
-0.072327
0.010071
0.11902
0.050964
-0.046692
0.036926
0.14618
0.078125
-0.0097656
0.081482
0.19196
0.1239
0.04303
0.14374
0.25635
0.18463
0.10345
0.20966
0.32928
0.26794
0.1947
0.29297
0.38605
0.2951
0.20325
0.29053
0.36804
0.25482
0.14313
0.21118
0.26642
0.13458
0.0057983
0.057068
0.09613
-0.039978
-0.14893
-0.066833
-0.0012207
-0.11658
-0.20691
-0.1062
-0.021973
-0.1181
-0.19348
-0.092163
-0.021973
-0.13123
-0.20691
-0.1001
-0.02533
-0.12848
-0.19592
-0.085144
-0.012207
-0.11566
-0.17914
-0.068054
-0.0054932
-0.11841
-0.18188
-0.065002
0.0027466
-0.1059
-0.16418
-0.050964
0.0054932
-0.11322
-0.17334
-0.055237
0.0027466
-0.11292
-0.16632
-0.050049
0.0027466
-0.11597
-0.16754
-0.05249
-0.011292
-0.13763
-0.18066
-0.049133
0.0024414
-0.12268
-0.17578
-0.057983
-0.014954
-0.1358
-0.177
-0.056458
-0.025024
-0.15045
-0.18311
-0.052185
-0.015259
-0.1416
-0.17242
-0.04425
-0.015869
-0.14984
-0.1828
-0.05188
-0.016479
-0.14099
-0.17029
-0.045166
-0.019531
-0.14252
-0.16357
-0.03479
-0.011292
-0.13214
-0.14099
0.00091553
0.032654
-0.081482
-0.083313
0.058899
0.084839
-0.0354
-0.049133
0.066833
0.056763
-0.096436
-0.12421
-0.011292
-0.01709
-0.14923
-0.14984
-0.014954
-0.014038
-0.1535
-0.16754
-0.050354
-0.055847
-0.17883
-0.16571
-0.031738
-0.039978
-0.17273
-0.16449
-0.030212
-0.018311
-0.091553
0.032043
0.3363
0.56152
0.68848
0.91125
1.1569
1.1206
0.78979
0.43884
0.14252
-0.15198
-0.32562
-0.20477
0.022278
0.030823
-0.11169
-0.10925
0.0033569
-0.027161
-0.15137
-0.12085
0.0048828
-0.020447
-0.13519
-0.092773
0.036926
0.0079346
-0.10773
-0.063782
0.064087
0.035095
-0.074158
-0.022888
0.10193
0.061951
-0.050964
0.0024414
0.13306
0.10193
0.0033569
0.073242
0.2066
0.17212
0.075378
0.15015
0.28687
0.24658
0.13916
0.20172
0.32196
0.26337
0.1413
0.18738
0.28442
0.20935
0.080261
0.11932
0.19073
0.074768
-0.091858
-0.073242
0.0067139
-0.073242
-0.18158
-0.11383
-0.017395
-0.10254
-0.21973
-0.15167
-0.049744
-0.12329
-0.22797
-0.15198
-0.050354
-0.12634
-0.22217
-0.13763
-0.031433
-0.10651
-0.19745
-0.10895
-0.0097656
-0.094299
-0.19043
-0.097961
0.0067139
-0.073242
-0.16479
-0.074463
0.021973
-0.064697
-0.15594
-0.066528
0.023499
-0.064392
-0.14435
-0.042419
0.048828
-0.045166
-0.13062
-0.035706
0.043335
-0.06073
-0.14557
-0.040283
0.050049
-0.046082
-0.12817
-0.038452
0.027466
-0.079041
-0.14984
-0.038452
0.038452
-0.070801
-0.14648
-0.04425
0.024109
-0.082397
-0.14618
-0.032349
0.032654
-0.083008
-0.15198
-0.039063
0.028076
-0.084229
-0.14832
-0.033875
0.028992
-0.081177
-0.13885
-0.023499
0.03418
-0.081177
-0.13306
-0.014648
0.036011
-0.088806
-0.13641
0.0067139
0.092468
0.0015259
-0.03418
0.090637
0.14404
0.029297
-0.014038
0.098267
0.12146
-0.027771
-0.093689
0.011902
0.045471
-0.079346
-0.11658
0.007019
0.039673
-0.095215
-0.1416
-0.028076
-0.00091553
-0.12634
-0.15198
-0.018921
0.016479
-0.10956
-0.13794
-0.011292
0.021973
-0.075684
-0.023804
0.24109
0.46478
0.57617
0.78918
1.098
1.2103
1.0257
0.76141
0.48798
0.11047
-0.22034
-0.22614
0.0045776
0.081177
-0.043945
-0.065613
0.059509
0.069275
-0.059509
-0.06897
0.059204
0.068054
-0.050354
-0.036926
0.10468
0.11047
-0.022278
-0.02655
0.098572
0.10223
-0.010681
0.010681
0.14709
0.14038
0.018311
0.04364
0.18982
0.19684
0.085144
0.11322
0.25299
0.24902
0.14252
0.18707
0.34088
0.34363
0.23529
0.26825
0.39459
0.36346
0.23071
0.25055
0.36804
0.32745
0.18219
0.18158
0.26398
0.18402
0.015564
0.010071
0.096436
0.024719
-0.13
-0.11444
-0.0030518
-0.046692
-0.17303
-0.1413
-0.032043
-0.084534
-0.20508
-0.15381
-0.028992
-0.074768
-0.19348
-0.14313
-0.021057
-0.071716
-0.19165
-0.13977
-0.021667
-0.072327
-0.18585
-0.12878
-0.014038
-0.07019
-0.17883
-0.11078
0.012817
-0.034485
-0.1413
-0.086975
0.0079346
-0.064087
-0.16663
-0.089417
0.022888
-0.046387
-0.15564
-0.087891
0.014954
-0.057068
-0.15747
-0.079956
0.021973
-0.059204
-0.1651
-0.089111
0.011292
-0.067749
-0.1651
-0.081177
0.01709
-0.067444
-0.16541
-0.076904
0.021362
-0.065002
-0.16663
-0.086975
-0.0015259
-0.093384
-0.1825
-0.085449
0.012512
-0.072021
-0.15533
-0.06134
0.019836
-0.085144
-0.17914
-0.082397
0.0094604
-0.082092
-0.16571
-0.072021
0.0073242
-0.08667
-0.159
-0.050049
0.036621
-0.049133
-0.10529
0.016785
0.10559
0.014954
-0.04364
0.068359
0.13275
0.0079346
-0.082397
0.0057983
0.055237
-0.067749
-0.14221
-0.039368
0.012512
-0.11108
-0.17914
-0.065002
-0.0048828
-0.12482
-0.1889
-0.074463
-0.014343
-0.12787
-0.18066
-0.059204
0.0012207
-0.10895
-0.14252
0.02594
0.18311
0.24109
0.4364
0.80994
1.0568
1.0471
0.98907
0.92255
0.60486
0.057373
-0.26672
-0.19897
-0.065918
-0.091553
-0.097656
0.013428
0.029602
-0.10254
-0.13214
-0.0027466
0.027161
-0.10315
-0.13397
-0.0024414
0.031433
-0.090942
-0.10925
0.030518
0.067139
-0.053406
-0.071411
0.065002
0.095215
-0.023499
-0.036621
0.096741
0.11932
-0.0012207
-0.0021362
0.14496
0.17792
0.066528
0.076904
0.22888
0.26001
0.15076
0.159
0.30182
0.31921
0.1947
0.19135
0.31311
0.30212
0.15991
0.14587
0.25269
0.21454
0.040894
0.0012207
0.090332
0.046387
-0.11902
-0.13855
-0.029907
-0.052185
-0.18982
-0.18433
-0.059204
-0.071716
-0.19592
-0.17487
-0.046082
-0.064087
-0.19073
-0.16846
-0.041199
-0.06073
-0.18341
-0.15717
-0.032959
-0.058594
-0.17639
-0.13733
-0.0094604
-0.041809
-0.16724
-0.12878
0.0021362
-0.028687
-0.15198
-0.11597
0.0073242
-0.02655
-0.14343
-0.097961
0.02533
-0.01709
-0.13794
-0.095825
0.021057
-0.027466
-0.14404
-0.090637
0.028381
-0.027161
-0.14954
-0.097961
0.022888
-0.025635
-0.13611
-0.079041
0.033264
-0.028992
-0.14374
-0.083008
0.026855
-0.040894
-0.15686
-0.093384
0.022278
-0.036316
-0.13916
-0.067444
0.043335
-0.025024
-0.13153
-0.059814
0.049133
-0.018005
-0.1178
-0.04364
0.052795
-0.028076
-0.12573
-0.026855
0.099487
0.039368
-0.046387
0.050354
0.1709
0.10284
0.0030518
0.068054
0.13794
0.029297
-0.083313
-0.0088501
0.075989
-0.017395
-0.11566
-0.03479
0.041199
-0.062561
-0.15594
-0.061035
0.031433
-0.056763
-0.13763
-0.039978
0.04364
-0.055847
-0.13519
-0.030518
0.06012
-0.010681
-0.018921
0.2121
0.48706
0.62653
0.79071
1.0773
1.2402
1.0721
0.7489
0.4538
0.1297
-0.1828
-0.24139
-0.020447
0.12207
0.014954
-0.07782
0.015869
0.080566
-0.021057
-0.074463
0.039063
0.096436
-0.017395
-0.065002
0.065308
0.12939
0.011597
-0.04364
0.081482
0.14709
0.038757
-0.0054932
0.12024
0.17792
0.065918
0.029907
0.16754
0.23132
0.12451
0.093689
0.23315
0.29663
0.19684
0.18158
0.32806
0.38361
0.27161
0.24689
0.38086
0.4187
0.28931
0.25085
0.3656
0.3775
0.22461
0.16571
0.25879
0.24048
0.063171
-0.0082397
0.083923
0.081482
-0.066528
-0.10315
0.014343
0.023804
-0.112
-0.12939
0.0045776
0.025024
-0.1062
-0.12787
-0.0039673
0.0082397
-0.11719
-0.12299
0.0085449
0.019531
-0.10468
-0.10468
0.02594
0.029602
-0.097351
-0.093689
0.039978
0.040283
-0.090027
-0.08667
0.044556
0.043945
-0.079651
-0.062866
0.072327
0.063171
-0.072327
-0.066223
0.061646
0.049744
-0.076599
-0.062256
0.065308
0.047913
-0.081482
-0.065308
0.058899
0.035706
-0.089417
-0.062866
0.064392
0.039673
-0.083313
-0.05188
0.074158
0.040894
-0.090027
-0.063171
0.058289
0.025024
-0.097351
-0.056458
0.069275
0.031128
-0.093079
-0.056763
0.060425
0.014648
-0.10651
-0.054016
0.075073
0.032043
-0.092163
-0.048828
0.066528
0.015259
-0.10529
-0.053101
0.063171
0.0073242
-0.11169
-0.057068
0.063782
0.015869
-0.090027
-0.022888
0.097046
0.047913
-0.046387
0.03479
0.15869
0.10315
0.0018311
0.076904
0.18829
0.11047
-0.013428
0.03479
0.12146
0.037537
-0.076294
-0.010986
0.078735
-0.0076294
-0.11261
-0.033264
0.065308
-0.019836
-0.12421
-0.04303
0.054016
-0.027161
-0.11871
-0.02655
0.070801
-0.019836
-0.11017
0.012817
0.18829
0.24384
0.3656
0.71045
1.0358
1.1008
1.0614
1.0461
0.84625
0.34332
-0.095215
-0.1474
-0.023804
-0.019836
-0.046692
0.052185
0.11261
-0.00091553
-0.078735
0.032654
0.11414
0.0067139
-0.074768
0.033264
0.11597
0.020142
-0.043335
0.072021
0.14862
0.044861
-0.01709
0.10071
0.17609
0.074768
0.022583
0.14923
0.22156
0.11475
0.067139
0.20569
0.28809
0.18402
0.13458
0.26611
0.34485
0.2478
0.20966
0.34058
0.40405
0.2948
0.25421
0.37933
0.4245
0.28931
0.22247
0.31891
0.32867
0.16388
0.076904
0.15961
0.1651
0.0091553
-0.055847
0.049133
0.067444
-0.07843
-0.12848
-0.0054932
0.031738
-0.092468
-0.12604
-0.00061035
0.029297
-0.096741
-0.12146
0.010376
0.040894
-0.081787
-0.095825
0.04364
0.066528
-0.067749
-0.09613
0.032043
0.053101
-0.073853
-0.08606
0.047302
0.064697
-0.062256
-0.068665
0.07019
0.087891
-0.040894
-0.050964
0.076599
0.076904
-0.06012
-0.069275
0.061035
0.06897
-0.056458
-0.054932
0.074463
0.069275
-0.06073
-0.053101
0.080261
0.075378
-0.055847
-0.051575
0.075378
0.066223
-0.06012
-0.045166
0.081482
0.061646
-0.068665
-0.048828
0.081482
0.061646
-0.067139
-0.043335
0.089111
0.071716
-0.053101
-0.028076
0.09613
0.067139
-0.057678
-0.023193
0.1062
0.074768
-0.055237
-0.027161
0.093994
0.058899
-0.065002
-0.025635
0.10071
0.066223
-0.054321
-0.011902
0.10803
0.062561
-0.059814
-0.013123
0.11017
0.064087
-0.053406
0.0015259
0.13123
0.098267
0.00030518
0.071716
0.20172
0.15961
0.058899
0.12634
0.23651
0.16022
0.02533
0.068359
0.16754
0.095215
-0.024719
0.029907
0.12451
0.042725
-0.077209
-0.010071
0.1001
0.033264
-0.072021
0.00091553
0.1059
0.032349
-0.069885
0.0088501
0.11108
0.033264
-0.053101
0.076294
0.27679
0.36194
0.49408
0.83221
1.1465
1.1972
1.1108
1.0248
0.76294
0.24353
-0.14587
-0.12787
0.047302
0.053101
-0.00061035
0.084839
0.15289
0.044861
-0.047913
0.048523
0.13733
0.040588
-0.042725
0.057678
0.1474
0.057983
-0.011902
0.096436
0.17944
0.080566
0.0079346
0.11658
0.19257
0.08728
0.019836
0.14404
0.23621
0.14526
0.091858
0.22491
0.31708
0.22156
0.1651
0.29022
0.37109
0.27435
0.22766
0.36102
0.43732
0.32501
0.26245
0.3775
0.43152
