-0.021973
-0.033875
-0.036316
-0.023193
-0.0061035
0.0015259
0.018616
0.045471
0.067444
0.069885
0.081482
0.10681
0.13275
0.14343
0.16205
0.19348
0.2243
0.23468
0.24689
0.26428
0.27832
0.27191
0.27039
0.27466
0.27344
0.24628
0.21484
0.18372
0.14557
0.090332
0.049744
0.028992
0.014343
-0.018616
-0.049133
-0.068665
-0.082703
-0.10742
-0.12177
-0.12695
-0.13489
-0.15717
-0.16693
-0.16144
-0.15045
-0.15503
-0.15045
-0.1355
-0.12482
-0.13824
-0.14557
-0.13885
-0.12543
-0.12848
-0.12939
-0.12512
-0.12299
-0.13611
-0.13855
-0.12909
-0.1181
-0.12909
-0.1358
-0.13153
-0.12512
-0.13428
-0.13489
-0.12451
-0.11353
-0.12695
-0.13855
-0.13367
-0.11108
-0.096741
-0.078735
-0.059204
-0.042419
-0.045471
-0.044861
-0.034485
-0.021057
-0.02655
-0.037537
-0.050659
-0.068665
-0.10437
-0.13275
-0.14771
-0.15411
-0.1709
-0.17487
-0.16602
-0.15564
-0.16479
-0.16907
-0.16113
-0.14862
-0.1535
-0.15442
-0.14587
-0.13824
-0.14343
-0.1123
-0.0057983
0.19257
0.46204
0.78186
1.0593
1.153
0.95032
0.5423
0.13397
-0.096741
-0.14954
-0.12115
-0.12024
-0.16479
-0.22736
-0.25879
-0.26062
-0.25299
-0.24841
-0.2182
-0.159
-0.09552
-0.061951
-0.039673
-0.018005
0.0024414
0.0042725
0.0097656
0.025024
0.044556
0.046082
0.05188
0.068665
0.090637
0.09491
0.099487
0.11505
0.1413
0.15594
0.17792
0.20996
0.25116
0.27374
0.29266
0.31189
0.33173
0.33386
0.34027
0.35339
0.37323
0.37872
0.37354
0.35706
0.3125
0.2475
0.1889
0.15045
0.12665
0.094604
0.088196
0.086975
0.074768
0.041504
0.021057
0.010681
-0.015259
-0.075989
-0.11444
-0.112
-0.097046
-0.10071
-0.1001
-0.084839
-0.067139
-0.087585
-0.11444
-0.11932
-0.10406
-0.10284
-0.1059
-0.112
-0.12146
-0.14801
-0.16968
-0.16205
-0.13062
-0.11566
-0.11658
-0.13275
-0.15228
-0.18524
-0.20782
-0.21057
-0.2005
-0.20599
-0.21179
-0.22156
-0.23346
-0.26123
-0.27466
-0.26917
-0.26062
-0.28564
-0.30823
-0.31921
-0.30396
-0.28412
-0.2652
-0.26367
-0.28748
-0.33051
-0.32379
-0.27954
-0.23193
-0.24017
-0.27466
-0.31097
-0.33081
-0.36987
-0.40894
-0.44739
-0.47729
-0.53131
-0.5838
-0.62195
-0.63141
-0.63049
-0.61371
-0.58624
-0.55634
-0.54993
-0.53925
-0.53436
-0.54504
-0.6012
-0.6604
-0.65308
-0.54321
-0.35217
-0.095215
0.20508
0.48401
0.6012
0.45807
0.083008
-0.32867
-0.59998
-0.66742
-0.62683
-0.60394
-0.64758
-0.71503
-0.75226
-0.75958
-0.76691
-0.75134
-0.7193
-0.67871
-0.65491
-0.62531
-0.57373
-0.52338
-0.51666
-0.51697
-0.50354
-0.47699
-0.46631
-0.45258
-0.42267
-0.38544
-0.37567
-0.36682
-0.33417
-0.29663
-0.27802
-0.26733
-0.23895
-0.20874
-0.19623
-0.2005
-0.18768
-0.15594
-0.11993
-0.087585
-0.05127
-0.028381
-0.0354
-0.052185
-0.06958
-0.074463
-0.10071
-0.1474
-0.17456
-0.18372
-0.20508
-0.25269
-0.31097
-0.33173
-0.34149
-0.35492
-0.38422
-0.40833
-0.41718
-0.39459
-0.35828
-0.34882
-0.40405
-0.47302
-0.46295
-0.38574
-0.34637
-0.38208
-0.4538
-0.4715
-0.4306
-0.36346
-0.28656
-0.21667
-0.19409
-0.18799
-0.17242
-0.13458
-0.11597
-0.10376
-0.092773
-0.088501
-0.1059
-0.12787
-0.095825
-0.053406
-0.046997
-0.053101
-0.045776
-0.021973
-0.032654
-0.057068
-0.048828
-0.00091553
0.028992
0.014954
-0.022583
-0.066833
-0.082092
-0.049133
0.013428
0.069885
0.087891
0.097046
0.14343
0.18097
0.17944
0.13428
0.096436
0.084839
0.083618
0.081177
0.071411
0.059509
0.034485
0.030823
0.068054
0.1001
0.092163
0.06134
0.045776
0.067444
0.071106
0.063477
0.068054
0.09491
0.11597
0.12878
0.13092
0.14374
0.14404
0.1889
0.33325
0.59784
0.92316
1.2292
1.402
1.3181
0.96161
0.51819
0.23834
0.19806
0.2417
0.22034
0.14618
0.082092
0.045166
-0.0012207
-0.035706
-0.029602
0.013428
0.053406
0.097351
0.14191
0.17609
0.18402
0.18585
0.18646
0.18616
0.17578
0.1767
0.19226
0.20081
0.20264
0.21545
0.22705
0.23376
0.22095
0.22644
0.24658
0.2652
0.27771
0.29633
0.32196
0.32959
0.31952
0.31799
0.336
0.3537
0.3595
0.36316
0.37964
0.37933
0.3537
0.33264
0.31769
0.28412
0.22095
0.16998
0.14709
0.1297
0.091248
0.042725
0.014038
-0.0073242
-0.030212
-0.049438
-0.063782
-0.080261
-0.11383
-0.14221
-0.15686
-0.159
-0.15686
-0.14191
-0.13275
-0.13947
-0.16235
-0.18311
-0.18097
-0.1889
-0.19958
-0.20203
-0.17853
-0.1709
-0.19806
-0.2356
-0.26428
-0.27222
-0.27802
-0.26154
-0.23987
-0.23315
-0.2597
-0.28046
-0.27222
-0.26428
-0.27832
-0.2948
-0.30487
-0.30487
-0.32227
-0.3244
-0.30762
-0.28961
-0.289
-0.28381
-0.26489
-0.24628
-0.25269
-0.25208
-0.24536
-0.23529
-0.24048
-0.24109
-0.2301
-0.23163
-0.27863
-0.33356
-0.37964
-0.3952
-0.40131
-0.3949
-0.39032
-0.39856
-0.42145
-0.43182
-0.42786
-0.42084
-0.43274
-0.43121
-0.41595
-0.40375
-0.41473
-0.40833
-0.35065
-0.21118
-0.011292
0.25177
0.54993
0.75989
0.75958
0.50354
0.11963
-0.19196
-0.32593
-0.30457
-0.26398
-0.2951
-0.38727
-0.4541
-0.47424
-0.47272
-0.4834
-0.46967
-0.42236
-0.36499
-0.33173
-0.29419
-0.24811
-0.20752
-0.19836
-0.18982
-0.17792
-0.16083
-0.16174
-0.16052
-0.15167
-0.13489
-0.12421
-0.10651
-0.090027
-0.079956
-0.079041
-0.057983
-0.019226
0.018921
0.037231
0.054016
0.067139
0.072327
0.058899
0.049438
0.052185
0.065613
0.066833
0.083008
0.098267
0.10437
0.090027
0.084229
0.070496
0.020142
-0.072632
-0.14465
-0.15808
-0.13733
-0.13885
-0.16357
-0.19501
-0.21423
-0.2359
-0.24078
-0.23285
-0.21729
-0.22644
-0.23529
-0.23895
-0.22644
-0.21698
-0.19958
-0.17914
-0.16693
-0.18097
-0.19012
-0.18158
-0.15839
-0.16205
-0.17151
-0.18372
-0.18219
-0.18494
-0.17059
-0.15228
-0.14679
-0.17059
-0.1828
-0.1709
-0.14709
-0.15289
-0.1593
-0.15015
-0.1239
-0.11139
-0.095825
-0.076599
-0.047607
-0.046692
-0.046082
-0.045471
-0.038147
-0.053406
-0.075378
-0.099792
-0.1181
-0.14282
-0.15259
-0.15289
-0.15442
-0.18219
-0.20508
-0.20752
-0.19562
-0.20264
-0.20172
-0.18768
-0.16083
-0.15686
-0.16174
-0.15198
-0.10345
-0.0082397
0.18066
0.47058
0.8075
1.044
1.0645
0.81757
0.42145
0.061035
-0.092163
-0.058899
0.016174
0.00030518
-0.078125
-0.14648
-0.17273
-0.19928
-0.22491
-0.23193
-0.20538
-0.17212
-0.13123
-0.085144
-0.038147
-0.020752
-0.014343
-0.0073242
0.010986
0.018921
0.033875
0.058594
0.085754
0.090637
0.09613
0.11353
0.14313
0.15442
0.16235
0.17914
0.20508
0.21423
0.2243
0.24261
0.26764
0.27252
0.2771
0.29358
0.31738
0.3183
0.30853
0.30365
0.30548
0.28564
0.25787
0.23102
0.20691
0.16632
0.13
0.10834
0.097656
0.067139
0.029602
0.00091553
-0.012207
-0.032043
-0.044861
-0.047302
-0.043335
-0.056458
-0.066528
-0.061951
-0.046692
-0.049133
-0.051575
-0.041199
-0.021057
-0.021973
-0.032349
-0.036011
-0.031128
-0.041199
-0.050659
-0.046387
-0.026245
-0.024109
-0.029907
-0.033264
-0.029297
-0.039063
-0.051575
-0.052795
-0.041199
-0.041504
-0.039063
-0.022888
0.0033569
0.012207
0.013123
0.021362
0.039978
0.042419
0.039063
0.04364
0.052795
0.037537
0.0094604
-0.015564
-0.03479
-0.070496
-0.1062
-0.11993
-0.1123
-0.11627
-0.12726
-0.12573
-0.10895
-0.1062
-0.11292
-0.11444
-0.10498
-0.1062
-0.11322
-0.10681
-0.068054
0.010071
0.1651
0.42175
0.7489
1.0388
1.163
1.0349
0.6723
0.23834
-0.055847
-0.12817
-0.076904
-0.063477
-0.11688
-0.17609
-0.19989
-0.21698
-0.23315
-0.23071
-0.19867
-0.15839
-0.11871
-0.072021
-0.027771
-0.012817
-0.013428
-0.0057983
0.015869
0.026245
0.027771
0.039673
0.063477
0.075073
0.07843
0.090942
0.11383
0.12787
0.13672
0.15594
0.18402
0.19775
0.20447
0.224
0.25391
0.27008
0.27222
0.28259
0.30426
0.31555
0.31738
0.32623
0.3363
0.32166
0.28564
0.2533
0.23193
0.19775
0.15259
0.11597
0.091248
0.056458
0.016479
-0.005188
-0.010071
-0.023499
-0.046692
-0.056152
-0.05188
-0.055847
-0.067749
-0.065918
-0.051575
-0.049133
-0.059509
-0.059509
-0.048828
-0.049438
-0.062256
-0.063782
-0.053711
-0.053406
-0.065613
-0.069275
-0.062256
-0.065308
-0.078735
-0.079041
-0.067139
-0.066528
-0.07843
-0.079956
-0.065918
-0.057068
-0.054321
-0.038757
-0.014038
-0.0033569
-0.0061035
0.00091553
0.014954
0.014954
0.0012207
-0.00091553
0.0033569
-0.0097656
-0.046387
-0.075378
-0.091858
-0.11078
-0.13672
-0.14435
-0.13428
-0.13092
-0.14343
-0.14648
-0.13641
-0.13306
-0.14343
-0.14252
-0.1297
-0.12848
-0.14404
-0.13214
-0.060425
0.078735
0.289
0.58655
0.91492
1.1353
1.1053
0.80627
0.38422
0.032959
-0.12604
-0.12024
-0.084839
-0.10925
-0.18372
-0.23254
-0.2417
-0.24139
-0.25024
-0.23499
-0.18616
-0.13
-0.092773
-0.057983
-0.028381
-0.0097656
-0.0082397
0.005188
0.029602
0.046692
0.04425
0.05127
0.07019
0.087891
0.088196
0.097046
0.11688
0.13458
0.14038
0.15839
0.18921
0.21576
0.22308
0.23651
0.2597
0.28198
0.28931
0.30396
0.32196
0.32928
0.31555
0.30701
0.30304
0.28473
0.24017
0.20172
0.17456
0.14862
0.10559
0.072937
0.054321
0.037231
0.0054932
-0.015564
-0.026245
-0.035706
-0.061646
-0.07782
-0.080261
-0.079651
-0.093079
-0.094299
-0.083923
-0.076904
-0.088501
-0.090332
-0.07843
-0.066528
-0.077209
-0.081177
-0.074158
-0.067444
-0.07843
-0.080566
-0.069885
-0.06012
-0.073853
-0.080566
-0.074768
-0.065613
-0.074768
-0.079041
-0.072937
-0.066223
-0.076599
-0.072937
-0.051575
-0.026245
-0.024109
-0.018616
-0.0015259
0.019226
0.014648
0.0091553
0.015564
0.022278
0.0048828
-0.019226
-0.043945
-0.069885
-0.10834
-0.12939
-0.12695
-0.11627
-0.12543
-0.13
-0.1239
-0.11414
-0.12238
-0.12177
-0.11108
-0.098877
-0.10986
-0.11749
-0.10406
-0.054016
0.036926
0.21973
0.50049
0.83038
1.0849
1.153
0.9552
0.56152
0.14648
-0.082397
-0.1059
-0.055237
-0.071106
-0.13641
-0.18799
-0.20264
-0.21606
-0.22034
-0.20477
-0.16357
-0.12634
-0.083923
-0.039063
-0.00030518
0.010986
0.022583
0.041199
0.062256
0.06134
0.066223
0.081787
0.10376
0.10406
0.11047
0.12939
0.15533
0.16266
0.17426
0.19806
0.22827
0.23926
0.25452
0.27618
0.30151
0.30426
0.31372
0.33386
0.35767
0.35797
0.35858
0.36224
0.36255
0.33112
0.29694
0.26978
0.24933
0.20874
0.17334
0.14984
0.13306
0.096436
0.063782
0.04425
0.03479
0.0097656
-0.0082397
-0.013123
-0.010376
-0.02594
-0.033264
-0.02594
-0.010376
-0.019226
-0.028381
-0.028076
-0.019531
-0.028381
-0.032043
-0.024414
-0.010681
-0.021057
-0.028687
-0.023193
-0.0097656
-0.021057
-0.03479
-0.037231
-0.027466
-0.035706
-0.04364
-0.044861
-0.039063
-0.052795
-0.061646
-0.057068
-0.042725
-0.044861
-0.040283
-0.022278
0.00091553
0
0.0018311
0.018616
0.04425
0.043335
0.03418
0.031128
0.032349
0.0097656
-0.019836
-0.046082
-0.066528
-0.10132
-0.12482
-0.12543
-0.1123
-0.11963
-0.12787
-0.12512
-0.11139
-0.11475
-0.11932
-0.11414
-0.10132
-0.11047
-0.12024
-0.10132
-0.027771
0.10223
0.3186
0.61523
0.92773
1.0995
1.0385
0.73242
0.33417
0.01709
-0.093689
-0.056458
-0.012207
-0.055542
-0.1358
-0.18616
-0.19958
-0.22034
-0.23773
-0.22552
-0.17822
-0.13397
-0.094299
-0.055542
-0.019531
-0.0088501
-0.005188
0.0079346
0.031738
0.039978
0.047302
0.063171
0.084839
0.085754
0.08606
0.10193
0.13092
0.14526
0.15656
0.17822
0.20844
0.22095
0.22736
0.24323
0.26917
0.27649
0.27893
0.29083
0.31128
0.31464
0.30945
0.30823
0.30823
0.2829
0.2475
0.22247
0.20721
0.17517
0.13702
0.11139
0.1004
0.074768
0.042114
0.021667
0.016479
-0.0018311
-0.02655
-0.039368
-0.0354
-0.040283
-0.047913
-0.046387
-0.035095
-0.036926
-0.04425
-0.040894
-0.028992
-0.033264
-0.042114
-0.039978
-0.027771
-0.031128
-0.041504
-0.040283
-0.027466
-0.029907
-0.041504
-0.041199
-0.031433
-0.0354
-0.050659
-0.054321
-0.044556
-0.04425
-0.046997
-0.036621
-0.013733
-0.0027466
0
0.016479
0.042419
0.05127
0.044556
0.045776
0.053406
0.043945
0.0177
-0.0054932
-0.021973
-0.052185
-0.08606
-0.10284
-0.10101
-0.10437
-0.112
-0.10559
-0.089722
-0.087891
-0.097961
-0.096436
-0.082092
-0.077515
-0.088501
-0.091248
-0.068359
-0.011902
0.1059
0.31769
0.61035
0.90546
1.0843
1.0529
0.77301
0.36438
0.028381
-0.090332
-0.047607
-0.0061035
-0.04364
-0.11658
-0.1651
-0.19257
-0.21637
-0.22369
-0.20447
-0.17029
-0.13092
-0.082397
-0.031738
-0.0015259
0.0076294
0.020142
0.040283
0.048828
0.045166
0.053711
0.075684
0.089417
0.091553
0.10406
0.12604
0.13672
0.13428
0.14648
0.17639
0.19989
0.20691
0.22003
0.24384
0.26001
0.26062
0.26855
0.28534
0.29633
0.29572
0.30182
0.31097
0.29968
0.26093
0.22217
0.19073
0.15472
0.11017
0.080261
0.064697
0.042114
0.0054932
-0.021667
-0.036621
-0.054626
-0.082092
-0.09613
-0.096436
-0.10132
-0.1178
-0.12115
-0.11078
-0.10681
-0.11902
-0.12207
-0.11108
-0.10376
-0.11475
-0.11963
-0.11414
-0.10956
-0.11871
-0.12085
-0.11444
-0.112
-0.12573
-0.13123
-0.12634
-0.12604
-0.13947
-0.14191
-0.13428
-0.13275
-0.15076
-0.16113
-0.15717
-0.15656
-0.17365
-0.18463
-0.18311
-0.17761
-0.18005
-0.16815
-0.14496
-0.12848
-0.13
-0.12054
-0.097046
-0.07843
-0.083618
-0.089111
-0.08728
-0.092468
-0.11932
-0.14374
-0.16296
-0.1889
-0.2298
-0.25513
-0.25726
-0.25116
-0.25848
-0.25665
-0.24719
-0.242
-0.25604
-0.26184
-0.25696
-0.25116
-0.26306
-0.26855
-0.2536
-0.20721
-0.11383
0.072937
0.35248
0.67291
0.91583
0.97595
0.77515
0.37903
-0.030518
-0.2533
-0.27832
-0.23682
-0.25635
-0.31677
-0.36041
-0.37659
-0.39703
-0.40741
-0.39642
-0.36224
-0.3302
-0.28809
-0.2417
-0.20447
-0.19531
-0.18707
-0.1712
-0.15472
-0.15839
-0.15289
-0.13641
-0.1181
-0.12054
-0.11444
-0.095825
-0.073853
-0.072021
-0.062256
-0.035706
-0.0033569
0.0064087
0.0177
0.036926
0.060425
0.068054
0.079346
0.097046
0.11292
0.10559
0.10345
0.11169
0.1181
0.095215
0.064392
0.032654
0.005188
-0.041199
-0.079651
-0.1062
-0.12817
-0.16785
-0.20203
-0.22217
-0.23193
-0.25787
-0.27832
-0.29114
-0.29633
-0.31525
-0.32227
-0.31586
-0.30487
-0.31647
-0.32318
-0.31708
-0.30579
-0.31738
-0.3244
-0.31769
-0.30334
-0.3125
-0.31891
-0.31494
-0.30396
-0.31311
-0.31982
-0.31616
-0.30853
-0.32227
-0.32898
-0.32196
-0.31036
-0.32349
-0.33722
-0.34058
-0.33234
-0.34119
-0.34485
-0.33569
-0.31525
-0.30853
-0.29602
-0.27924
-0.25879
-0.25879
-0.25238
-0.23621
-0.21973
-0.22949
-0.2475
-0.26215
-0.27161
-0.30182
-0.33203
-0.35614
-0.36987
-0.39032
-0.39612
-0.38971
-0.37933
-0.39032
-0.39734
-0.39063
-0.37384
-0.37689
-0.38177
-0.37872
-0.37323
-0.38025
-0.35797
-0.26764
-0.089111
0.1532
0.44769
0.71991
0.84198
0.69366
0.32532
-0.070496
-0.30853
-0.36194
-0.31464
-0.29083
-0.32532
-0.39825
-0.44312
-0.45471
-0.4538
-0.46661
-0.46051
-0.41901
-0.35889
-0.31952
-0.28992
-0.26245
-0.23651
-0.23468
-0.23071
-0.2121
-0.18524
-0.17914
-0.177
-0.16113
-0.13336
-0.12268
-0.11749
-0.10406
-0.079956
-0.068054
-0.051575
-0.021973
0.014648
0.027161
0.033264
0.050049
0.076599
0.085449
0.089111
0.10162
0.12207
0.11749
0.10071
0.083008
0.067444
0.030823
-0.0082397
-0.0354
-0.050964
-0.082703
-0.11627
-0.13855
-0.14954
-0.17609
-0.20294
-0.21515
-0.21606
-0.23071
-0.24719
-0.25269
-0.2478
-0.25696
-0.26581
-0.26031
-0.24292
-0.24231
-0.24658
-0.24231
-0.23041
-0.23254
-0.23682
-0.23254
-0.22064
-0.22675
-0.2356
-0.23346
-0.22156
-0.22858
-0.24475
-0.24963
-0.23621
-0.23285
-0.2359
-0.2356
-0.23102
-0.23926
-0.24902
-0.24506
-0.22858
-0.23224
-0.24475
-0.24933
-0.23804
-0.23376
-0.22858
-0.20905
-0.17975
-0.16846
-0.16663
-0.15564
-0.12939
-0.11353
-0.10132
-0.086365
-0.071106
-0.080566
-0.10681
-0.12451
-0.13336
-0.159
-0.19684
-0.2243
-0.23132
-0.23499
-0.23438
-0.2243
-0.20905
-0.21271
-0.22339
-0.2179
-0.1944
-0.18372
-0.18433
-0.18127
-0.16998
-0.15228
-0.10315
0.023193
0.24048
0.51849
0.81421
1.0352
1.0602
0.802
0.38055
0.018616
-0.13611
-0.13733
-0.11658
-0.13977
-0.18738
-0.23071
-0.25879
-0.26703
-0.26031
-0.2475
-0.22491
-0.17975
-0.12665
-0.085754
-0.065308
-0.045776
-0.026855
-0.019226
-0.018311
-0.0045776
0.010681
0.010986
0.0021362
0.013123
0.040894
0.054932
0.053711
0.064087
0.089111
0.11139
0.12573
0.15198
0.18768
0.20844
0.21423
0.22675
0.24933
0.26398
0.26794
0.28442
0.30701
0.3125
0.29388
0.27161
0.24872
0.21179
0.16357
0.12909
0.10773
0.07782
0.038147
0.010376
-0.0054932
-0.027161
-0.057678
-0.072632
-0.073853
-0.079956
-0.099182
-0.10742
-0.10254
-0.10345
-0.11871
-0.12054
-0.10773
-0.097046
-0.10101
-0.10162
-0.092468
-0.087891
-0.097046
-0.096436
-0.08606
-0.079346
-0.086365
-0.083618
-0.072021
-0.066528
-0.07782
-0.081177
-0.074463
-0.072327
-0.086365
-0.088501
-0.076904
-0.065918
-0.072327
-0.075073
-0.06958
-0.066528
-0.07843
-0.080566
-0.073242
-0.068054
-0.083923
-0.089111
-0.084839
-0.078125
-0.090027
-0.090332
-0.076294
-0.054626
-0.043945
-0.024414
-0.0045776
0.010986
0.012817
0.030212
0.05188
0.061646
0.042114
0.032043
0.027466
0.020752
-0.0085449
-0.03479
-0.056458
-0.07782
-0.11047
-0.11719
-0.10559
-0.089722
-0.098267
-0.1001
-0.093689
-0.082092
-0.089417
-0.08667
-0.07782
-0.06958
-0.084839
-0.07843
-0.027771
0.087891
0.26306
0.52948
0.8429
1.0931
1.1316
0.91187
0.51971
0.14557
-0.066528
-0.085144
-0.036316
-0.035095
-0.10956
-0.1709
-0.1944
-0.19562
-0.21393
-0.2121
-0.18005
-0.12634
-0.091248
-0.050659
-0.015259
0.011597
0.0054932
0.0082397
0.023804
0.046692
0.046997
0.054626
0.071411
0.096741
0.1001
0.10864
0.12085
0.13977
0.14435
0.16205
0.1889
0.22095
0.2298
0.24536
0.26428
0.289
0.29449
0.3125
0.33783
0.35889
0.3476
0.33661
0.33417
0.33569
0.30426
0.26642
0.22675
0.19592
0.15015
0.12054
0.10223
0.091553
0.058289
0.032654
0.016785
0.0076294
-0.025635
-0.052185
-0.064697
-0.061951
-0.076599
-0.084839
-0.083008
-0.068665
-0.068665
-0.059509
-0.045166
-0.029297
-0.040588
-0.045166
-0.038147
-0.020752
-0.024414
-0.027771
-0.024109
-0.013733
-0.023804
-0.031433
-0.032959
-0.02655
-0.036621
-0.040588
-0.037537
-0.028992
-0.039978
-0.046692
-0.047302
-0.040588
-0.051575
-0.05249
-0.04364
-0.028992
-0.036316
-0.039063
-0.028687
-0.0057983
-0.0042725
-0.00091553
0.012512
0.039673
0.048523
0.049438
0.047302
0.046692
0.02594
0.0082397
-0.0073242
-0.025024
-0.068359
-0.10376
-0.11597
-0.10773
-0.11536
-0.12146
-0.1178
-0.10559
-0.11505
-0.12421
-0.12421
-0.11139
-0.11536
-0.12177
-0.12421
-0.10956
-0.079346
0.020447
0.21729
0.50323
0.80017
1.0089
1.0178
0.77332
0.36224
0.0085449
-0.13519
-0.098572
-0.047913
-0.064087
-0.12573
-0.17151
-0.20447
-0.2301
-0.24994
-0.24933
-0.23468
-0.19196
-0.13977
-0.089722
-0.071716
-0.058899
-0.039368
-0.014038
-0.010986
-0.012817
-0.0042725
0.017395
0.025024
0.029907
0.041199
0.059814
0.063782
0.072021
0.093994
0.12482
0.13855
0.14709
0.16205
0.1886
0.20325
0.22095
0.24353
0.26489
0.26489
0.26489
0.27527
0.28717
0.26703
0.23376
0.20172
0.17456
0.13123
0.085144
0.054321
0.033569
0
-0.032654
-0.054016
-0.067444
-0.09552
-0.12115
-0.12665
-0.12115
-0.13519
-0.15472
-0.15778
-0.14618
-0.1474
-0.15442
-0.15167
-0.13855
-0.14404
-0.15503
-0.15198
-0.1358
-0.13458
-0.1416
-0.14221
-0.13458
-0.14038
-0.14709
-0.13947
-0.12451
-0.13062
-0.14709
-0.14954
-0.13763
-0.14191
-0.15564
-0.16113
-0.15503
-0.1593
-0.1712
-0.16968
-0.15533
-0.15472
-0.16388
-0.16571
-0.15839
-0.16174
-0.17242
-0.1712
-0.16022
-0.16266
-0.17181
-0.17059
-0.15625
-0.14984
-0.14679
-0.12848
-0.098877
-0.080872
-0.072632
-0.059509
-0.04425
-0.049133
-0.067444
-0.080261
-0.085144
-0.1059
-0.13977
-0.16663
-0.18433
-0.20691
-0.22888
-0.22888
-0.21301
-0.21149
-0.22339
-0.22736
-0.21698
-0.21545
-0.22339
-0.22064
-0.20996
-0.21301
-0.21667
-0.17303
-0.05127
0.14618
0.41138
0.72784
1.0016
1.0815
0.87219
0.45959
0.046082
-0.19897
-0.25452
-0.21881
-0.20721
-0.25269
-0.31067
-0.33539
-0.33752
-0.34454
-0.35156
-0.32288
-0.26031
-0.20172
-0.16815
-0.14008
-0.11444
-0.1004
-0.099792
-0.089111
-0.069275
-0.054932
-0.053101
-0.042114
-0.022583
-0.010681
-0.010376
0.00030518
0.024109
0.045166
0.058289
0.081787
0.11292
0.13916
0.14984
0.17334
0.20508
0.23071
0.23804
0.25055
0.27039
0.28381
0.27802
0.27069
0.26031
0.23651
0.19012
0.15167
0.12085
0.08667
0.038147
0.0018311
-0.021362
-0.04425
-0.082703
-0.10986
-0.12695
-0.1416
-0.1651
-0.17334
-0.16937
-0.16937
-0.18677
-0.19165
-0.18219
-0.17029
-0.17609
-0.17456
-0.16663
-0.16144
-0.17334
-0.17395
-0.16418
-0.15442
-0.16602
-0.17151
-0.16632
-0.15686
-0.16296
-0.16388
-0.16174
-0.16113
-0.17517
-0.1767
-0.17426
-0.17334
-0.19196
-0.19653
-0.18921
-0.18036
-0.18951
-0.19012
-0.18433
-0.18097
-0.19714
-0.2005
-0.19348
-0.18646
-0.19958
-0.20508
-0.20081
-0.19104
-0.19409
-0.17883
-0.1532
-0.12817
-0.12573
-0.11322
-0.085449
-0.058594
-0.058899
-0.063171
-0.065918
-0.072632
-0.10223
-0.12573
-0.1413
-0.16022
-0.19775
-0.22064
-0.22003
-0.20782
-0.21759
-0.22522
-0.22919
-0.22827
-0.24261
-0.24445
-0.23529
-0.22064
-0.2243
-0.22675
-0.22278
-0.19257
-0.12207
0.047302
0.3186
0.65002
0.93109
1.0504
0.91339
0.54413
0.10071
-0.19226
-0.27008
-0.23132
-0.23193
-0.28198
-0.33142
-0.34851
-0.36682
-0.3772
-0.37231
-0.33997
-0.30884
-0.26703
-0.22064
-0.17944
-0.16785
-0.15747
-0.1355
-0.10803
-0.10834
-0.11139
-0.10864
-0.092773
-0.088196
-0.072632
-0.048523
-0.023804
-0.025024
-0.023193
-0.0076294
0.023804
0.040588
0.064087
0.09613
0.13489
0.1535
0.16907
0.18372
0.20294
0.20569
0.21057
0.21637
0.21667
0.18951
0.16052
0.12878
0.091858
0.032043
-0.018005
-0.048218
-0.07019
-0.11566
-0.16083
-0.19348
-0.20966
-0.23895
-0.26367
-0.27649
-0.27679
-0.289
-0.2948
-0.29175
-0.27618
-0.27496
-0.26428
-0.24261
-0.21515
-0.20844
-0.20386
-0.18982
-0.16571
-0.15869
-0.14954
-0.13306
-0.10956
-0.10651
-0.10315
-0.089417
-0.069275
-0.068359
-0.070496
-0.062256
-0.047302
-0.050659
-0.055237
-0.051575
-0.042419
-0.054626
-0.065918
-0.065918
-0.053711
-0.061646
-0.075378
-0.083008
-0.079651
-0.089722
-0.099792
-0.10132
-0.096741
-0.10834
-0.12238
-0.12512
-0.11383
-0.11536
-0.11383
-0.10406
-0.087891
-0.085754
-0.085754
-0.07843
-0.070496
-0.086365
-0.10773
-0.12238
-0.13031
-0.15869
-0.19135
-0.21393
-0.22003
-0.23468
-0.24445
-0.24048
-0.22766
-0.23163
-0.23834
-0.23224
-0.21393
-0.21301
-0.21698
-0.21332
-0.20569
-0.21301
-0.20142
-0.12451
0.040894
0.27649
0.56763
0.85968
1.019
0.91431
0.5661
0.16388
-0.099182
-0.17914
-0.15686
-0.14435
-0.17883
-0.24231
-0.28656
-0.29999
-0.29602
-0.2948
-0.27283
-0.2182
-0.15167
-0.10803
-0.085754
-0.066223
-0.047302
-0.043335
-0.041809
-0.027161
-0.0036621
0.007019
0.012207
0.028381
0.05249
0.06073
0.06134
0.073242
0.098877
0.11444
0.12543
0.14954
0.18616
0.21057
0.22339
0.2417
0.26611
0.27954
0.28503
0.29968
0.31982
0.32135
0.30823
0.29785
0.28839
0.26001
0.21606
0.1825
0.1593
0.12482
0.079956
0.044861
0.024109
-0.00091553
-0.033264
-0.054321
-0.064087
-0.078735
-0.096436
-0.1001
-0.092773
-0.094604
-0.10651
-0.10315
-0.088806
-0.084229
-0.094604
-0.093689
-0.080566
-0.073547
-0.081177
-0.080566
-0.07019
-0.064697
-0.070496
-0.07019
-0.065613
-0.066833
-0.075989
-0.071106
-0.058899
-0.06012
-0.077209
-0.081787
-0.073547
-0.070801
-0.083313
-0.08728
-0.079651
-0.076599
-0.085754
-0.086975
-0.07843
-0.072327
-0.080566
-0.080872
-0.074158
-0.070801
-0.071716
-0.056152
-0.02655
-0.0045776
-0.00061035
0.014038
0.037842
0.052795
0.046997
0.045471
0.055847
0.06012
0.041504
0.019226
-0.0064087
-0.036926
-0.074768
-0.091553
-0.091248
-0.092468
-0.10559
-0.10315
-0.087585
-0.074768
-0.084229
-0.086975
-0.080261
-0.073547
-0.080566
-0.084229
-0.074158
-0.041199
0.028992
0.18127
0.42328
0.72357
0.99243
1.1182
0.99426
0.64484
0.2417
0
-0.038757
0.0064087
-0.0042725
-0.065613
-0.12756
-0.15808
-0.18158
-0.18768
-0.17395
-0.13855
-0.1001
-0.052795
-0.0057983
0.030518
0.042114
0.057373
0.076904
0.094604
0.095215
0.10437
0.12054
0.13367
0.12604
0.12909
0.14557
0.16724
0.17334
0.18707
0.21301
0.24292
0.25513
0.27222
0.29388
0.3183
0.32318
0.33264
0.34729
0.36194
0.36072
0.36835
0.37903
0.383
0.35736
0.33142
0.3064
0.27985
0.23193
0.19226
0.16296
0.13733
0.091553
0.055237
0.030823
0.014343
-0.0177
-0.041199
-0.050354
-0.052185
-0.06897
-0.077515
-0.077209
-0.072021
-0.087891
-0.095215
-0.089111
-0.073547
-0.076904
-0.080261
-0.078125
-0.06958
-0.080872
-0.089111
-0.093384
-0.091553
-0.10223
-0.10284
-0.096741
-0.092163
-0.10925
-0.11749
-0.11414
-0.10406
-0.11902
-0.13092
-0.13306
-0.12512
-0.13367
-0.14038
-0.13428
-0.11566
-0.10895
-0.098267
-0.08667
-0.071106
-0.072632
-0.066223
-0.054016
-0.041809
-0.058289
-0.080872
-0.10101
-0.1178
-0.15503
-0.18524
-0.2002
-0.19928
-0.20996
-0.21667
-0.21423
-0.20477
-0.21301
-0.21881
-0.21606
-0.20386
-0.20813
-0.21057
-0.21332
-0.20508
-0.18677
-0.10559
0.063782
0.32471
0.61859
0.87585
0.96405
0.79163
0.40131
0.013123
-0.18707
-0.17975
-0.11566
-0.10223
-0.15564
-0.22217
-0.27466
-0.3006
-0.31372
-0.31799
-0.31952
-0.29022
-0.23682
-0.17822
-0.14862
-0.13092
-0.11017
-0.083618
-0.075378
-0.072327
-0.067139
-0.053711
-0.052185
-0.044861
-0.027466
-0.005188
-0.0015259
0.0027466
0.021362
0.050354
0.062256
0.072021
0.090637
0.11841
0.12848
0.13489
0.14862
0.17151
0.17914
0.1825
0.18982
0.19806
0.18494
0.16571
0.14984
0.13428
0.096741
0.056152
0.027771
0.010986
-0.019226
-0.054321
-0.07843
-0.089417
-0.11108
-0.13458
-0.14832
-0.15167
-0.16479
-0.17853
-0.18066
-0.1709
-0.17273
-0.17822
-0.17334
-0.16022
-0.16327
-0.1712
-0.16785
-0.15472
-0.15564
-0.16327
-0.16113
-0.14862
-0.15045
-0.159
-0.159
-0.15137
-0.15625
-0.16815
-0.16968
-0.16174
-0.16724
-0.17761
-0.1712
-0.1474
-0.12909
-0.11749
-0.10376
-0.086975
-0.086365
-0.092163
-0.086365
-0.069275
-0.063171
-0.074463
-0.086975
-0.1001
-0.12756
-0.16235
-0.18524
-0.19501
-0.2066
-0.21851
-0.21423
-0.2005
-0.19867
-0.20874
-0.20813
-0.19989
-0.20111
-0.20966
-0.20477
-0.19165
-0.17975
-0.14954
-0.050354
0.13672
0.39673
0.68878
0.93781
1.012
0.81573
0.42084
0.042419
-0.15015
-0.16083
-0.11566
-0.11047
-0.16144
-0.23041
-0.28046
-0.29755
-0.29785
-0.2951
-0.28107
-0.23193
-0.16968
-0.12024
-0.095825
-0.072327
-0.047607
-0.034485
-0.031128
-0.01709
0.0030518
0.014038
0.010071
0.019226
0.039978
0.056458
0.06134
0.075989
0.10254
0.12695
0.14069
0.16449
0.19226
0.2124
0.21759
0.23376
0.26001
0.28107
0.28564
0.29755
0.31219
0.31555
0.29602
0.27802
0.26123
0.23621
0.19531
0.16388
0.14252
0.11871
0.080872
0.052185
0.03418
0.016479
-0.012512
-0.029602
-0.037231
-0.044556
-0.062256
-0.066528
-0.061035
-0.057983
-0.073242
-0.076599
-0.068054
-0.057068
-0.062866
-0.063782
-0.055542
-0.044556
-0.049744
-0.050049
-0.046387
-0.043335
-0.053101
-0.052795
-0.045471
-0.038147
-0.047913
-0.047913
-0.041199
-0.036621
-0.053101
-0.059509
-0.052185
-0.035095
-0.027466
-0.011292
0.010071
0.027161
0.024109
0.027771
0.038147
0.048218
0.042114
0.038452
0.035706
0.025024
-0.0091553
-0.037537
-0.059204
-0.075378
-0.10376
-0.11475
-0.10773
-0.093384
-0.098572
-0.10223
-0.1001
-0.090637
-0.093689
-0.086975
-0.076294
-0.068054
-0.079346
-0.058899
0.022583
0.1828
0.40924
0.70251
0.99945
1.1664
1.0699
0.7312
0.31769
0.027161
-0.073242
-0.04303
-0.0177
-0.05249
-0.13275
-0.18097
-0.19501
-0.19348
-0.20416
-0.18738
-0.14008
-0.078735
-0.037537
-0.00030518
0.033569
0.061035
0.06012
0.065308
0.081177
0.10529
0.11353
0.12451
0.14069
0.16144
0.16388
0.17487
0.19318
0.21759
0.2243
0.23926
0.26642
0.29846
0.30945
0.32227
0.34271
0.3656
0.36652
0.37079
0.38849
0.41504
0.41656
0.40436
0.38849
0.37201
0.33478
0.29846
0.26672
0.2417
0.19958
0.1651
0.14069
0.12421
0.088501
0.057678
0.041809
0.037842
0.015564
-0.0033569
-0.0094604
0
-0.0054932
-0.011902
-0.010986
0.00030518
-0.0033569
-0.0033569
0.0042725
0.01709
0.010986
0.0067139
0.014648
0.028687
0.018005
0.0054932
0.0064087
0.020447
0.014343
0.0030518
0.0018311
0.014954
0.012817
0.0057983
0.0036621
0.0079346
-0.0030518
-0.012207
-0.0088501
0.0064087
0.010376
0.019836
0.041199
0.069275
0.075378
0.07782
0.089417
0.10803
0.10437
0.094299
0.090027
0.092468
0.075073
0.047302
0.022888
0.0030518
-0.028076
-0.052795
-0.057373
-0.048828
-0.054932
-0.061035
-0.050659
-0.029297
-0.028076
-0.036011
-0.032043
-0.016174
-0.018311
-0.027466
-0.011902
0.059814
0.19257
0.40924
0.70831
1.0306
1.2277
1.1917
0.89844
0.48615
0.13733
-0.014343
-0.0036621
0.032959
-0.0027466
-0.07843
-0.12177
-0.12512
-0.12848
-0.13519
-0.11749
-0.065002
-0.012207
0.032043
0.071411
0.1062
0.12054
0.12604
0.14252
0.16602
0.17365
0.17273
0.18494
0.20752
0.21912
0.21851
0.22888
0.25452
0.27344
0.28687
0.30914
0.33722
0.35339
0.36041
0.37811
0.40497
0.42236
0.4303
0.44647
0.46692
0.47089
0.45868
0.45288
0.44952
0.42694
0.3833
0.34607
0.32135
0.29114
0.24811
0.21271
0.18799
0.15991
0.12329
0.099487
0.086975
0.070496
0.046692
0.035095
0.03418
0.028992
0.015259
0.01709
0.027161
0.028381
0.016174
0.016785
0.031128
0.039368
0.031433
0.033264
0.04364
0.047913
0.036926
0.036011
0.043945
0.044861
0.032043
0.032043
0.043335
0.047607
0.029907
0.021973
0.026855
0.030823
0.020752
0.019226
0.026855
0.0354
0.034485
0.047913
0.06897
0.086365
0.08728
0.097046
0.11444
0.12329
0.11353
0.11353
0.11505
0.10406
0.065002
0.033569
0.014038
-0.0039673
-0.035095
-0.050354
-0.045471
-0.034485
-0.040283
-0.039978
-0.036316
-0.033264
-0.04364
-0.040894
-0.027161
-0.015869
-0.026855
-0.02655
0.0048828
0.088806
0.23285
0.46997
0.77057
1.0474
1.1545
1.0236
0.67871
0.29205
0.029602
-0.023499
0.031128
0.059509
0.0033569
-0.063782
-0.095825
-0.10406
-0.12665
-0.14099
-0.12665
-0.082092
-0.043945
0.0015259
0.047607
0.086365
0.09613
0.10315
0.1178
0.13763
0.14069
0.14954
0.16449
0.18524
0.19012
0.20325
0.22552
0.25055
0.25818
0.27313
0.29633
0.3241
0.33234
0.3476
0.37231
0.39978
0.40588
0.41229
0.42511
0.44159
0.43915
0.43945
0.43823
0.43121
0.39459
0.35889
0.32928
0.30731
0.26978
0.23834
0.21423
0.19318
0.15228
0.12085
0.10498
0.10254
0.085754
0.072021
0.065308
0.066833
0.053101
0.046387
0.044556
0.048523
0.037537
0.037842
0.051575
0.069275
0.064392
0.06073
0.064087
0.075073
0.064697
0.058899
0.065613
0.083313
0.080566
0.073242
0.071411
0.076904
0.066223
0.058594
0.058594
0.068054
0.058594
0.053711
0.057068
0.066223
0.054932
0.04425
0.045166
0.058594
0.059204
0.068054
0.087585
0.11444
0.1181
0.11993
0.13184
0.14984
0.14374
0.13397
0.12878
0.1297
0.10681
0.076294
0.049133
0.027771
-0.007019
-0.030823
-0.029297
-0.010376
-0.0094604
-0.015259
-0.01709
-0.0097656
-0.018921
-0.024414
-0.014038
0.0094604
0.010376
0.0024414
0.014648
0.082703
0.22858
0.49316
0.85388
1.2286
1.4456
1.4017
1.0992
0.66681
0.22949
-0.054932
-0.14709
-0.064392
0.044861
0.0354
-0.12573
-0.32288
-0.42542
-0.3775
-0.25452
-0.1413
-0.081177
-0.037842
0.0094604
0.058289
0.081482
0.093994
0.11078
0.12848
0.13184
0.1413
0.17365
0.21088
0.21332
0.19867
0.20142
0.23254
0.26611
0.29755
0.33722
0.37842
0.39551
0.40039
0.4126
0.43152
0.43732
0.44525
0.46356
0.48615
0.48645
0.46387
0.45135
0.448
0.4364
0.41382
0.39032
0.36652
0.32593
0.27557
0.24323
0.22705
0.19897
0.15259
0.11566
0.094604
0.068359
0.033264
0.007019
-0.005188
-0.025024
-0.054626
-0.076599
-0.08667
-0.1001
-0.11383
-0.10773
-0.086975
-0.080872
-0.093689
-0.10193
-0.10101
-0.10193
-0.11597
-0.12024
-0.11719
-0.11597
-0.12604
-0.13214
-0.13123
-0.13428
-0.14313
-0.13855
-0.12695
-0.11841
-0.11993
-0.11597
-0.11169
-0.11627
-0.12787
-0.12634
-0.1178
-0.11749
-0.13245
-0.13397
-0.12268
-0.11841
-0.12909
-0.13062
-0.11658
-0.091858
-0.073853
-0.047607
-0.018311
0.0064087
0.0177
0.0354
0.049744
0.046997
0.024414
0.010376
0.010681
0.0079346
-0.022583
-0.054321
-0.079956
-0.094299
-0.10742
-0.10101
-0.084839
-0.071411
-0.07782
-0.076599
-0.067139
-0.056458
-0.064697
-0.064087
-0.053711
-0.04425
-0.046082
-0.011902
0.090332
0.2774
0.5304
0.83618
1.1063
1.2061
1.0269
0.63934
0.23254
-0.016785
-0.081482
-0.046692
-0.036011
-0.075684
-0.13947
-0.16632
-0.16449
-0.15167
-0.14404
-0.10834
-0.049744
0.013733
0.05188
0.083313
0.10803
0.12238
0.11536
0.11566
0.13062
0.15533
0.16388
0.177
0.1947
0.21576
0.22003
0.23071
0.24872
0.2713
0.27985
0.29846
0.32745
0.35828
0.36743
0.38147
0.40497
0.43335
0.44281
0.45502
0.47241
0.49103
0.48676
0.48096
0.46844
0.44708
0.39886
0.35889
0.33325
0.31067
0.26794
0.22766
0.19928
0.18066
0.14435
0.11353
0.093994
0.086975
0.070801
0.064087
0.068054
0.075684
0.063477
0.055237
0.055542
0.064697
0.058289
0.059814
0.07019
0.082703
0.072327
0.065613
0.073242
0.091248
0.087585
0.082092
0.083313
0.093079
0.090027
0.091248
0.097961
0.1062
0.093689
0.085449
0.087891
0.097046
0.085754
0.077209
0.079651
0.089417
0.081482
0.072021
0.069885
0.076599
0.07019
0.069885
0.078125
0.088196
0.076599
0.065002
0.066833
0.080566
0.079346
0.075378
0.074463
0.07782
0.067444
0.065308
0.081177
0.11078
0.12695
0.13916
0.15747
0.18463
0.19684
0.20386
0.20996
0.21484
0.20325
0.18707
0.177
0.16968
0.14069
0.10468
0.077515
0.067139
0.056763
0.054626
0.06134
0.071411
0.065308
0.057678
0.065002
0.082397
0.083618
0.079956
0.080566
0.083618
0.07782
0.098267
0.18738
0.36377
0.60913
0.90332
1.1765
1.2961
1.145
0.77484
0.37231
0.11932
0.047913
0.071411
0.084534
0.050354
-0.011902
-0.054016
-0.063477
-0.052795
-0.038757
-0.0094604
0.043335
0.1004
0.13916
0.16357
0.18829
0.20996
0.21393
0.21606
0.23285
0.25757
0.26581
0.26215
0.26917
0.289
0.30121
0.30823
0.32562
0.34943
0.36316
0.36835
0.38544
0.41534
0.43854
0.45349
0.47272
0.49103
0.50079
0.5069
0.52673
0.5481
0.54871
0.52979
0.51636
0.5069
0.48187
0.44312
0.41016
0.38422
0.34943
0.30334
0.26764
0.2417
0.21179
0.17822
0.159
0.14984
0.13611
0.11475
0.10803
0.10834
0.10468
0.091553
0.093079
0.10437
0.10742
0.098877
0.10162
0.10925
0.11017
0.097961
0.09552
0.10132
0.10284
0.093994
0.094604
0.10315
0.10315
0.089111
0.084839
0.08667
0.082397
0.067444
0.064697
0.074463
0.082092
0.074158
0.071106
0.06897
0.06012
0.039673
0.035095
0.041809
0.04425
0.0354
0.037537
0.045776
0.041809
0.018616
0.010681
0.0177
0.024414
0.013123
0.0091553
0.014343
0.019531
0.012817
0.014343
0.020142
0.021362
0.0067139
0.0064087
0.018616
0.036926
0.047302
0.066528
0.08728
0.10223
0.093384
0.086975
0.082092
0.076904
0.066223
0.065918
0.068054
0.057983
0.019836
-0.012512
-0.038452
-0.056763
-0.079956
-0.083618
-0.074768
-0.068665
-0.081787
-0.08606
-0.079346
-0.071716
-0.084229
-0.08728
-0.081177
-0.074768
-0.079956
-0.05188
0.045166
0.22827
0.47791
0.77698
1.026
1.0971
0.88989
0.50232
0.12299
-0.088806
-0.13885
-0.12054
-0.13428
-0.18951
-0.25848
-0.289
-0.29205
-0.27985
-0.26855
-0.22919
-0.16785
-0.10498
-0.070496
-0.04364
-0.02533
-0.011902
-0.015869
-0.007019
0.012817
0.030823
0.026855
0.027466
0.040283
0.061646
0.064392
0.06897
0.082092
0.10559
0.11871
0.13458
0.1535
0.17517
0.18463
0.20111
0.22034
0.23895
0.23865
0.25055
0.27252
0.29388
0.28748
0.27435
0.26123
0.24323
0.19989
0.15778
0.12695
0.10651
0.068054
0.025635
-0.010986
-0.038147
-0.075073
-0.1059
-0.12848
-0.14252
-0.16724
-0.18188
-0.18402
-0.18066
-0.19104
-0.19897
-0.19409
-0.18188
-0.18982
-0.19714
-0.19379
-0.18188
-0.18311
-0.18524
-0.1828
-0.17822
-0.19012
-0.19867
-0.19531
-0.18707
-0.19531
-0.20355
-0.20203
-0.19531
-0.20538
-0.21637
-0.21576
-0.20416
-0.20813
-0.21545
-0.21454
-0.20569
-0.2124
-0.22339
-0.22614
-0.21729
-0.21759
-0.21973
-0.2179
-0.2124
-0.22156
-0.22888
-0.22339
-0.21179
-0.21393
-0.21698
-0.20966
-0.19684
-0.20325
-0.21545
-0.21515
-0.20264
-0.19867
-0.19775
-0.18524
-0.16449
-0.15564
-0.14923
-0.13275
-0.10742
-0.1004
-0.10437
-0.10132
-0.092468
-0.09552
-0.11353
-0.13062
-0.14709
-0.17609
-0.20782
-0.2243
-0.22614
-0.23193
-0.24109
-0.24139
-0.2359
-0.24017
-0.2475
-0.24353
-0.23224
-0.23285
-0.24078
-0.24048
-0.23254
-0.22125
-0.18097
-0.062866
0.14801
0.42603
0.71442
0.90576
0.88684
0.60669
0.20508
-0.11108
-0.23102
-0.22247
-0.21027
-0.24628
-0.31128
-0.37018
-0.41229
-0.42328
-0.4126
-0.38422
-0.3421
-0.2832
-0.22583
-0.18921
-0.17609
-0.16602
-0.15625
-0.15045
-0.14923
-0.13489
-0.12024
-0.11505
-0.11597
-0.097351
-0.071411
-0.057068
-0.06134
-0.054626
-0.03479
-0.015564
-0.0076294
0.0085449
0.031738
0.053406
0.067749
0.092773
0.11902
0.13336
0.13092
0.13672
0.14771
0.15259
0.14191
0.1355
0.12543
0.096741
0.046387
0.011597
-0.0082397
-0.02655
-0.062256
-0.09552
-0.11963
-0.14191
-0.17548
-0.19928
-0.21576
-0.22705
-0.24628
-0.25299
-0.25024
-0.24567
-0.2478
-0.23743
-0.2243
-0.21729
-0.2301
-0.23071
-0.22247
-0.21515
-0.22461
-0.22461
-0.21515
-0.20508
-0.21118
-0.21057
-0.2063
-0.20233
-0.21606
-0.21729
-0.20874
-0.2005
-0.20874
-0.20966
-0.20111
-0.1889
-0.19501
-0.19531
-0.19226
-0.1886
-0.20081
-0.20416
-0.19745
-0.18677
-0.18982
-0.18555
-0.17334
-0.15228
-0.14465
-0.12543
-0.10193
-0.078125
-0.073547
-0.064392
-0.055847
-0.049744
-0.071411
-0.093079
-0.1123
-0.13
-0.16327
-0.18799
-0.19836
-0.19897
-0.21088
-0.21667
-0.21606
-0.21118
-0.21973
-0.22095
-0.21393
-0.20172
-0.20111
-0.19562
-0.19043
-0.18829
-0.19257
-0.14496
-0.012817
0.21667
0.49927
0.79041
0.96802
0.92285
0.61432
0.21332
-0.08606
-0.1825
-0.16357
-0.13977
-0.17426
-0.24292
-0.31006
-0.34058
-0.33997
-0.32562
-0.31494
-0.27924
-0.22247
-0.15778
-0.11993
-0.097046
-0.079651
-0.061646
-0.059204
-0.050049
-0.036011
-0.018921
-0.019531
-0.013733
0.0039673
0.02594
0.029907
0.035095
0.054932
0.08728
0.10529
0.12329
0.14343
0.16815
0.18127
0.19836
0.22064
0.24689
0.25543
0.26611
0.28076
0.2948
0.28809
0.2774
0.26642
0.24902
0.20844
0.16785
0.13611
0.11414
0.078125
0.044556
0.022888
0.0085449
-0.019226
-0.047607
-0.066833
-0.078735
-0.10132
-0.11963
-0.12634
-0.12238
-0.12848
-0.13031
-0.11841
-0.10132
-0.10315
-0.11169
-0.10773
-0.092468
-0.089417
-0.092468
-0.092773
-0.085144
-0.085449
-0.087585
-0.084229
-0.081177
-0.091553
-0.10101
-0.095215
-0.080566
-0.080261
-0.085754
-0.083008
-0.075989
-0.082703
-0.096436
-0.097656
-0.089111
-0.091553
-0.10071
-0.095215
-0.076904
-0.066223
-0.066223
-0.064697
-0.058594
-0.058289
-0.056152
-0.035095
-0.0018311
0.021667
0.035095
0.056763
0.080261
0.089417
0.079956
0.076599
0.074158
0.062561
0.038147
0.021362
0.0054932
-0.021973
-0.050964
-0.053406
-0.034485
-0.022278
-0.023804
-0.018616
-0.0061035
0.0015259
0.00091553
0.012817
0.029602
0.032043
0.014648
0.013733
0.051575
0.14252
0.29999
0.54932
0.85724
1.1371
1.2543
1.1325
0.79559
0.4071
0.14771
0.089722
0.13062
0.13763
0.078125
0.018005
-0.0088501
-0.017395
-0.025024
-0.0067139
0.046387
0.11566
0.17242
0.22339
0.26123
0.28381
0.28687
0.29449
0.30426
0.3125
0.31403
0.32928
0.34698
0.35278
0.33997
0.33936
0.35248
0.36896
0.3714
0.38116
0.39948
0.42145
0.43488
0.45593
0.4776
0.49835
0.50812
0.52551
0.54016
0.54718
0.54382
0.5545
0.56458
0.55817
0.5249
0.49744
0.47058
0.43884
0.39215
0.36255
0.34363
0.32288
0.28412
0.25665
0.23895
0.224
0.19135
0.17181
0.16754
0.17365
0.16693
0.16449
0.16571
0.17059
0.16449
0.1709
0.18127
0.18921
0.17761
0.17242
0.17761
0.18738
0.18463
0.1889
0.19531
0.19958
0.1889
0.19257
0.20172
0.20905
0.1944
0.18829
0.19348
0.20325
0.19165
0.18585
0.18585
0.19379
0.18738
0.19043
0.20142
0.21454
0.20782
0.20142
0.19897
0.20386
0.20081
0.21088
0.23285
0.26001
0.27283
0.29297
0.31647
0.336
0.33173
0.32928
0.33234
0.33844
0.31891
0.2948
0.26978
0.24689
0.20996
0.18555
0.17822
0.18524
0.18311
0.18463
0.19226
0.19836
0.18829
0.18372
0.1889
0.19989
0.19379
0.18951
0.19257
0.21881
0.26764
0.38696
0.59631
0.88226
1.1737
1.3593
1.3245
1.0315
0.61371
0.29388
0.18829
0.21851
0.22827
0.17242
0.093994
0.042114
0.0067139
-0.0027466
0.014038
0.056458
0.10162
0.15076
0.20386
0.25208
0.27222
0.2774
0.28168
0.29236
0.29205
0.30243
0.32043
0.34149
0.34485
0.34821
0.36407
0.38788
0.39551
0.40283
0.42145
0.44952
0.46539
0.48004
0.50171
0.52734
0.53894
0.54688
0.56152
0.57953
0.58441
0.5899
0.60303
0.61218
0.59723
0.57037
0.54749
0.52582
0.48462
0.43915
0.40833
0.38666
0.35492
0.31616
0.28503
0.2597
0.22949
0.20264
0.19226
0.1889
0.17365
0.15778
0.15656
0.16144
0.15503
0.14038
0.13763
0.14435
0.14404
0.13947
0.14435
0.15503
0.15564
0.14618
0.14191
0.14252
0.14069
0.1355
0.13733
0.1355
0.12177
0.1059
0.10681
0.11414
0.11047
0.097351
0.094299
0.10071
0.10162
0.097656
0.10803
0.12695
0.14252
0.14893
0.15961
0.17242
0.17944
0.18005
0.18829
0.19958
0.20569
0.20172
0.19592
0.177
0.14282
0.10162
0.080566
0.071716
0.058899
0.039368
0.0354
0.046082
0.057373
0.055237
0.057983
0.061646
0.061646
0.053711
0.05249
0.053101
0.047913
0.055847
0.12817
0.28137
0.51483
0.79346
1.0724
1.2158
1.1066
0.74524
0.33844
0.083618
0.04425
0.10193
0.13458
0.08728
0.0024414
-0.06897
-0.09552
-0.10406
-0.10559
-0.10284
-0.066833
-0.015564
0.030212
0.058289
0.08728
0.10895
0.12054
0.12024
0.13672
0.15808
0.16876
0.15808
0.15991
0.17517
0.19379
0.19592
0.20905
0.23193
0.25543
0.26337
0.27832
0.29938
0.3241
0.33295
0.35095
0.37018
0.38513
0.383
0.39154
0.40771
0.42389
0.41565
0.40161
0.37903
0.35004
0.30792
0.27954
0.25848
0.2359
0.1947
0.16388
0.14252
0.12238
0.087891
0.062256
0.047607
0.039978
0.019531
0.010681
0.010681
0.015564
0.0064087
0.0067139
0.014648
0.023804
0.017395
0.018921
0.025635
0.032654
0.019531
0.015259
0.022278
0.036926
0.032349
0.030518
0.033569
0.041199
0.033569
0.033264
0.035706
0.039673
0.026855
0.021667
0.027466
0.037537
0.033875
0.039673
0.057983
0.080261
0.080566
0.083313
0.094604
0.112
0.10559
0.097961
0.092468
0.093689
0.075989
0.054321
0.029297
0.0021362
-0.037537
-0.06134
-0.064087
-0.054321
-0.059814
-0.065308
-0.063782
-0.056152
-0.065308
-0.070496
-0.067444
-0.054016
-0.056152
-0.061035
-0.049438
0.014038
0.14069
0.36133
0.66101
0.98022
1.1795
1.1539
0.86029
0.43427
0.065613
-0.093689
-0.086975
-0.056458
-0.10315
-0.18677
-0.24078
-0.25116
-0.25391
-0.24506
-0.21606
-0.16205
-0.11566
-0.071411
-0.032654
-0.0021362
0.007019
0.016785
0.037231
0.057068
0.06012
0.061646
0.073242
0.087585
0.086975
0.088196
0.10681
0.13641
0.15198
0.16388
0.18463
0.2121
0.22888
0.24506
0.26764
0.29053
0.29724
0.30151
0.3186
0.33966
0.34302
0.33813
0.33875
0.33508
0.30609
0.26398
0.22888
0.20325
0.16754
0.12634
0.093079
0.065308
0.030212
-0.0057983
-0.02594
-0.040588
-0.065002
-0.091248
-0.10071
-0.099792
-0.10834
-0.12512
-0.12939
-0.1239
-0.12604
-0.13214
-0.12939
-0.11871
-0.11566
-0.12268
-0.12207
-0.1178
-0.11871
-0.12573
-0.12238
-0.11719
-0.12085
-0.13
-0.12665
-0.11871
-0.1239
-0.14008
-0.14404
-0.13824
-0.13672
-0.14252
-0.13428
-0.11566
-0.10193
-0.097351
-0.083313
-0.068359
-0.064087
-0.071106
-0.067444
-0.058899
-0.061646
-0.081787
-0.094299
-0.10681
-0.13092
-0.16998
-0.1944
-0.20599
-0.21454
-0.23071
-0.23193
-0.22247
-0.21332
-0.21667
-0.21027
-0.19958
-0.19135
-0.19623
-0.19348
-0.18921
-0.17883
-0.14618
-0.038757
0.16357
0.44495
0.75134
1.0007
1.0599
0.8429
0.42053
0.0177
-0.19836
-0.22278
-0.19318
-0.19958
-0.25726
-0.32013
-0.36377
-0.37109
-0.36072
-0.33417
-0.30029
-0.24017
-0.17853
-0.13062
-0.11108
-0.092163
-0.073242
-0.054016
-0.045776
-0.028687
-0.010376
0.0033569
0.0021362
0.013733
0.032959
0.05249
0.055542
0.072937
0.095825
0.11902
0.12573
0.14526
0.17487
0.20691
0.2179
0.23499
0.25635
0.2771
0.28137
0.28992
0.29938
0.30701
0.29327
0.27802
0.25574
0.22064
0.16418
0.12054
0.08728
0.06012
0.013733
-0.020447
-0.041199
-0.051575
-0.077209
-0.098267
-0.11139
-0.11444
-0.12665
-0.13367
-0.13824
-0.14221
-0.15442
-0.14862
-0.13092
-0.1123
-0.11536
-0.11627
-0.11017
-0.10162
-0.1123
-0.11749
-0.1123
-0.098877
-0.098572
-0.097046
-0.092773
-0.087585
-0.097656
-0.099792
-0.093994
-0.081482
-0.081787
-0.069275
-0.046997
-0.022888
-0.020142
-0.018311
-0.011292
-0.0027466
-0.011902
-0.01709
-0.018005
-0.021362
-0.052185
-0.085144
-0.11322
-0.13123
-0.15839
-0.17426
-0.17365
-0.16388
-0.16785
-0.16998
-0.16479
-0.15656
-0.16022
-0.15961
-0.15015
-0.13947
-0.1535
-0.16571
-0.14648
-0.066833
0.078735
0.31555
0.63141
0.95612
1.1346
1.0605
0.72266
0.29053
-0.047302
-0.17212
-0.15656
-0.14343
-0.20508
-0.28992
-0.33264
-0.33234
-0.33173
-0.32745
-0.29968
-0.24231
-0.18982
-0.14618
-0.10437
-0.066223
-0.048218
-0.041199
-0.031433
-0.015869
-0.010376
-0.0048828
0.014954
0.040588
0.05249
0.055542
0.068359
0.092163
0.10803
0.12115
0.14404
0.17303
0.1944
0.21484
0.24445
0.27344
0.2829
0.28473
0.29999
0.32288
0.33081
0.32349
0.31769
0.31006
0.28473
0.24292
0.20355
0.16907
0.12878
0.090637
0.06958
0.059204
0.039978
0.0082397
-0.014954
-0.029602
-0.045776
-0.062561
-0.067139
-0.066223
-0.075684
-0.090027
-0.08667
-0.072327
-0.064087
-0.068359
-0.065613
-0.059509
-0.057983
-0.061951
-0.050659
-0.032959
-0.021667
-0.021362
-0.015564
-0.010071
-0.013733
-0.024719
-0.020142
-0.0073242
0.00091553
0.0027466
0.018005
0.040894
0.053711
0.049744
0.054321
0.064392
0.06958
0.062561
0.066223
0.072937
0.067444
0.040588
0.013733
-0.014038
-0.046082
-0.081482
-0.091858
-0.084534
-0.078125
-0.086365
-0.084534
-0.078735
-0.076599
-0.088501
-0.085144
-0.071411
-0.058899
-0.068359
-0.073547
-0.062561
-0.0094604
0.10132
0.31281
0.61188
0.93933
1.1591
1.1673
0.89813
0.47546
0.093079
-0.077209
-0.076904
-0.050354
-0.093994
-0.16846
-0.22217
-0.24323
-0.25604
-0.24445
-0.21088
-0.15717
-0.10925
-0.055237
-0.0097656
0.021973
0.029907
0.04364
0.059814
0.075989
0.074768
0.08606
0.10345
0.1236
0.12634
0.13794
0.15503
0.17426
0.17975
0.1947
0.21759
0.24506
0.25665
0.2771
0.3006
0.32806
0.34149
0.36011
0.37598
0.38269
0.37079
0.36957
0.37323
0.36896
0.3302
0.28778
0.25208
0.22369
0.17975
0.14282
0.11475
0.1004
0.06958
0.044861
0.023499
0.0091553
-0.016785
-0.031433
-0.035706
-0.0354
-0.053711
-0.062866
-0.058594
-0.045776
-0.049438
-0.049744
-0.04303
-0.033569
-0.041809
-0.041504
-0.029297
-0.012512
-0.017395
-0.026245
-0.032349
-0.03479
-0.04425
-0.040588
-0.02655
-0.01709
-0.033264
-0.047302
-0.050354
-0.04364
-0.05127
-0.057678
-0.056152
-0.049133
-0.054016
-0.051575
-0.040588
-0.030518
-0.039978
-0.04425
-0.028687
-0.0027466
0.0079346
0.0097656
0.011597
0.013428
-0.0061035
-0.029907
-0.048523
-0.06134
-0.088806
-0.11536
-0.13306
-0.1358
-0.14069
-0.13824
-0.12604
-0.11444
-0.1178
-0.1181
-0.10773
-0.093384
-0.098572
-0.10529
-0.10254
-0.08667
-0.062256
0.010376
0.16846
0.41779
0.70923
0.9726
1.0895
0.96497
0.61096
0.21698
-0.023499
-0.057983
-0.0064087
0.010681
-0.032959
-0.097961
-0.1532
-0.18799
-0.20172
-0.19897
-0.18494
-0.14954
-0.090942
-0.031128
0.0054932
0.021362
0.037842
0.054626
0.062866
0.068359
0.084839
0.10406
0.10986
0.11444
0.13336
0.15625
0.16144
0.1535
0.16144
0.1828
0.19989
0.21057
0.22949
0.25604
0.27344
0.28076
0.2951
0.31128
0.3183
0.31372
0.31494
0.31708
0.30487
0.2771
0.25208
0.22705
0.19257
0.14893
0.1178
0.092773
0.06073
0.01709
-0.014343
-0.036926
-0.062256
-0.096436
-0.1178
-0.13062
-0.14343
-0.16296
-0.16846
-0.1651
-0.16388
-0.16968
-0.16266
-0.1535
-0.14923
-0.15503
-0.14648
-0.13428
-0.12909
-0.13855
-0.13641
-0.12726
-0.12146
-0.12817
-0.12604
-0.11993
-0.11871
-0.12878
-0.12726
-0.11932
-0.11627
-0.12512
-0.1178
-0.097656
-0.078125
-0.076599
-0.067139
-0.053711
-0.042114
-0.046692
-0.043945
-0.038452
-0.036316
-0.056152
-0.071106
-0.088806
-0.10956
-0.14526
-0.16693
-0.17792
-0.18341
-0.19592
-0.19379
-0.18585
-0.18127
-0.19531
-0.19623
-0.18707
-0.17548
-0.18097
-0.17914
-0.17548
-0.16815
-0.1532
-0.07843
0.077515
0.3183
0.60455
0.89905
1.0696
1.0019
0.66223
0.23651
-0.079041
-0.18616
-0.17517
-0.15259
-0.18097
-0.2356
-0.29022
-0.31281
-0.32135
-0.31647
-0.3064
-0.25909
-0.19501
-0.13489
-0.10406
-0.076904
-0.052185
-0.031433
-0.030823
-0.021973
-0.0064087
0.011597
0.010071
0.016479
0.032043
0.055542
0.063171
0.074463
0.088501
0.10742
0.11505
0.1358
0.16388
0.19135
0.19745
0.20782
0.22766
0.2533
0.26093
0.26978
0.28107
0.2887
0.271
0.24658
0.21759
0.18402
0.13275
0.091858
0.063477
0.041199
0.0018311
-0.030518
-0.050049
-0.062561
-0.090637
-0.11261
-0.12329
-0.12878
-0.15198
-0.16968
-0.17181
-0.16144
-0.16388
-0.16663
-0.16144
-0.15167
-0.15656
-0.16022
-0.15717
-0.14923
-0.15503
-0.15656
-0.14801
-0.1355
-0.13947
-0.14313
-0.13947
-0.13153
-0.14221
-0.15106
-0.14832
-0.13885
-0.14496
-0.15167
-0.14771
-0.13916
-0.14923
-0.16357
-0.16632
-0.15747
-0.15594
-0.1535
-0.14374
-0.13123
-0.13062
-0.12695
-0.11139
-0.092773
-0.092468
-0.09613
-0.088501
-0.068054
-0.053406
-0.040894
-0.02655
-0.024719
-0.047607
-0.080566
-0.10712
-0.12665
-0.15289
-0.17303
-0.17853
-0.17639
-0.17792
-0.17426
-0.15686
-0.14435
-0.15442
-0.17029
-0.17151
-0.16205
-0.16052
-0.16602
-0.15533
-0.11353
-0.02533
0.13885
0.39612
0.70648
0.97778
1.0876
0.95764
0.60089
0.17761
-0.1181
-0.19775
-0.16388
-0.159
-0.22278
-0.29144
-0.32501
-0.33905
-0.35431
-0.35461
-0.33417
-0.29449
-0.25024
-0.19684
-0.15381
-0.13641
-0.13458
-0.12177
-0.10376
-0.096436
-0.10406
-0.099182
-0.083923
-0.070496
-0.068054
-0.053406
-0.032959
-0.014648
-0.005188
0.015564
0.037537
0.055847
0.068359
0.095825
0.12665
0.1474
0.15594
0.17822
0.20508
0.22491
0.22675
0.23438
0.23712
0.22705
0.19531
0.16754
0.14191
0.11139
0.071106
0.043335
0.021667
-0.0027466
-0.039673
-0.06134
-0.073547
-0.08728
-0.11383
-0.12695
-0.13153
-0.13519
-0.15259
-0.15564
-0.1474
-0.13824
-0.14374
-0.14099
-0.13367
-0.12726
-0.13733
-0.13519
-0.12756
-0.1181
-0.12329
-0.11749
-0.10834
-0.10223
-0.11292
-0.11383
-0.10773
-0.10406
-0.11627
-0.1181
-0.11169
-0.10437
-0.11597
-0.11963
-0.11658
-0.11078
-0.12177
-0.12482
-0.12299
-0.11719
-0.12482
-0.12329
-0.12024
-0.11993
-0.13367
-0.13306
-0.12268
-0.10986
-0.11475
-0.10284
-0.077209
-0.047913
-0.042114
-0.032043
-0.014343
0.0088501
0.010071
0.010681
0.010376
0.0064087
-0.0177
-0.035706
-0.05127
-0.070801
-0.10956
-0.13153
-0.13153
-0.12115
-0.12817
-0.12878
-0.12115
-0.11017
-0.1181
-0.11932
-0.10895
-0.091858
-0.095215
-0.098267
-0.092163
-0.055847
0.018311
0.17914
0.43335
0.74829
1.0229
1.1484
1.0333
0.69092
0.271
-0.012207
-0.082397
-0.030518
-0.014954
-0.062256
-0.12939
-0.16541
-0.1944
-0.21057
-0.21118
-0.18463
-0.14954
-0.099792
-0.045166
0.0076294
0.030212
0.042725
0.057068
0.075989
0.082397
0.090332
0.10681
0.12848
0.13519
0.14313
0.15839
0.17792
0.18433
0.19714
0.22522
0.26093
0.28046
0.29999
0.32867
0.36102
0.37384
0.38147
0.39764
0.42053
0.42725
0.42999
0.43915
0.45105
0.44037
0.4129
0.38177
0.34943
0.30609
0.26733
0.24261
0.22217
0.18677
0.15015
0.12695
0.11261
0.085754
0.058594
0.046997
0.045166
0.03418
0.023193
0.025635
0.035706
0.03418
0.026855
0.032959
0.043945
0.04425
0.041504
0.050659
0.064392
0.062561
0.054626
0.06134
0.075073
0.074768
0.067139
0.072632
0.084839
0.085449
0.075378
0.076599
0.083313
0.079041
0.068054
0.068359
0.074768
0.069275
0.055847
0.057068
0.065918
0.066528
0.056458
0.058289
0.066528
0.065002
0.054016
0.055237
0.065613
0.068359
0.059814
0.062561
0.070496
0.069885
0.06012
0.063477
0.074768
0.074768
0.063477
0.070801
0.091248
0.11017
0.11566
0.13031
0.15137
0.16785
0.17365
0.18707
0.19897
0.19775
0.18219
0.17639
0.17181
0.15747
0.12665
0.10345
0.082703
0.061951
0.038147
0.037842
0.045776
0.047913
0.03479
0.036011
0.045166
0.05127
0.042114
0.04303
0.050964
0.054626
0.043335
0.058594
0.11749
0.24536
0.44769
0.74066
1.069
1.3043
1.3147
1.0638
0.64911
0.25787
0.031433
-0.0061035
0.021667
0.012207
-0.050354
-0.095215
-0.11078
-0.112
-0.11963
-0.098267
-0.049744
0.010376
0.05249
0.095825
0.13184
0.1532
0.14984
0.15533
0.17273
0.19379
0.19592
0.20233
0.21332
0.22797
0.22949
0.24109
0.25909
0.27802
0.28107
0.29663
0.32166
0.35156
0.36591
0.39032
0.41962
0.44769
0.4541
0.46722
0.48706
0.50781
0.50507
0.50323
0.50201
0.49713
0.46295
0.42419
0.38574
0.35156
0.30273
0.26459
0.23438
0.20813
0.16479
0.13062
0.10681
0.089111
0.055847
0.03418
0.02533
0.026245
0.0097656
0.0021362
0.0061035
0.019226
0.014648
0.010986
0.012512
0.020142
0.012207
0.0094604
0.014343
0.023804
0.01709
0.015869
0.022278
0.029907
0.018311
0.011902
0.015869
0.024109
0.013428
0.0073242
0.013733
0.025024
0.015869
0.0064087
0.0048828
0.0097656
0
-0.0064087
-0.0027466
0.0048828
-0.0054932
-0.013123
-0.0091553
0.00030518
-0.0079346
-0.01709
-0.015259
-0.0064087
-0.012512
-0.01709
-0.011292
0
-0.0054932
-0.012512
-0.0088501
-0.00030518
-0.005188
-0.010071
-0.0036621
0.0076294
0.0033569
-0.0012207
0.0054932
0.016174
0.011292
0.007019
0.021667
0.049744
0.064087
0.070801
0.085449
0.1059
0.10895
0.10193
0.10223
0.10803
0.1004
0.082397
0.068665
0.056458
0.026855
-0.007019
-0.023499
-0.022583
-0.028076
-0.038757
-0.040588
-0.033264
-0.032349
-0.032654
-0.021973
-0.0085449
-0.0082397
-0.012817
-0.0067139
0.0033569
0.012512
0.051575
0.16663
0.37231
0.64606
0.95062
1.2024
1.2717
1.0596
0.64758
0.24841
0.029297
-0.014343
-0.00030518
-0.012207
-0.063171
-0.11627
-0.1532
-0.16205
-0.15533
-0.1413
-0.11017
-0.05127
0.011597
0.05249
0.065918
0.081177
0.097656
0.10895
0.11047
0.12421
0.14282
0.15472
0.15411
0.16602
0.18158
0.19318
0.19653
0.21301
0.23682
0.25757
0.2713
0.3006
0.33356
0.35522
0.36011
0.3772
0.40314
0.42664
0.43518
0.45013
0.46631
0.47546
0.46417
0.4541
0.43427
0.40039
0.34882
0.31006
0.27924
0.24536
0.19867
0.16602
0.14282
0.11627
0.074463
0.047302
0.032349
0.023499
0.0030518
-0.0048828
-0.0054932
-0.0064087
-0.021667
-0.024414
-0.019531
-0.011902
-0.019531
-0.014954
-0.0042725
0.0048828
-0.0039673
-0.0018311
0.0064087
0.014343
0.00030518
-0.0048828
0.00061035
0.012207
0.0061035
0.0036621
0.0061035
0.012817
0.0027466
0.00091553
0.0021362
0.0064087
-0.0064087
-0.0082397
-0.0015259
0.0073242
-0.0048828
-0.014343
-0.015259
-0.0088501
-0.0177
-0.019226
-0.014954
-0.0054932
-0.011292
-0.011292
-0.0054932
0.0024414
-0.0067139
-0.0076294
-0.0039673
0.0045776
0.0024414
0.01709
0.04364
0.068359
0.068665
0.073853
0.089722
0.11139
0.10834
0.10376
0.10376
0.10468
0.083923
0.058594
0.035706
0.018921
-0.0064087
-0.018005
-0.018616
-0.012817
-0.022278
-0.023499
-0.014038
-0.0018311
-0.0091553
-0.013733
-0.0079346
0.0048828
-0.00061035
-0.0067139
0.0018311
0.050049
0.14587
0.32837
0.59814
0.9079
1.1398
1.1911
0.99243
0.61401
0.22858
0.024414
0.020142
0.084229
0.075073
0.00061035
-0.072327
-0.10681
-0.13397
-0.15167
-0.1474
-0.11108
-0.064392
-0.014038
0.035095
0.075378
0.090637
0.098267
0.11078
0.12573
0.13062
0.13794
0.15503
0.17334
0.17548
0.17761
0.19318
0.21576
0.22339
0.2298
0.24933
0.27771
0.29633
0.30884
0.32806
0.35461
0.3656
0.37323
0.38879
0.40802
0.41351
0.41077
0.41229
0.41473
0.3949
0.36713
0.34637
0.32501
0.28473
0.23315
0.19287
0.16541
0.13428
0.10162
0.07782
0.052795
0.013123
-0.021057
-0.027161
-0.014343
-0.011597
-0.024414
-0.031738
-0.030518
-0.028992
-0.028687
-0.016479
-0.0036621
-0.0033569
-0.010071
-0.0033569
0.0097656
0.016785
0.013123
0.020142
0.028381
0.027771
0.017395
0.0177
0.021973
0.020752
0.014648
0.025635
0.039063
0.036011
0.01709
0.022888
0.042419
0.056763
0.046692
0.036621
0.029907
0.022278
0.0091553
0.013733
0.022583
0.021362
0.0064087
0.0061035
0.014343
0.018311
0.010986
0.024109
0.050659
0.075378
0.082397
0.093994
0.11353
0.13031
0.13153
0.13611
0.13733
0.13
0.10498
0.090637
0.080261
0.062256
0.028992
0.012817
0.010681
0.011597
-0.0039673
-0.0042725
0.0054932
0.018311
0.013428
0.018921
0.031128
0.043335
0.038452
0.040588
0.046387
0.070801
0.12665
0.27008
0.51331
0.82672
1.1337
1.3324
1.301
1.001
0.56122
0.21851
0.090942
0.11536
0.13519
0.10651
0.054321
0.021973
0.00061035
-0.0015259
0.0082397
0.0354
0.070801
0.13
0.1944
0.24261
0.25543
0.26642
0.28198
0.29907
0.29205
0.29053
0.3064
0.34241
0.36163
0.36957
0.3595
0.34302
0.32288
0.3302
0.35522
0.38452
0.39124
0.40619
0.43671
0.47577
0.5011
0.52704
0.56915
0.63904
0.62439
0.54626
0.44739
0.41931
0.47394
0.53314
0.53284
0.48248
0.41748
0.35706
0.30914
0.26215
0.18372
0.13397
0.12085
0.1239
0.12512
0.12299
0.12177
0.1059
0.033569
-0.032959
-0.061646
-0.035095
-0.0036621
0.0097656
0.014343
0.0042725
0.0064087
0.034485
0.06073
0.093994
0.098877
0.088196
0.05188
0.0079346
0.018616
0.095215
0.14984
0.12634
0.059204
0.039978
0.10071
0.18127
0.22034
0.22491
0.22949
0.25085
0.28076
0.28168
0.23804
0.17517
0.13519
0.16479
0.23071
0.28931
0.30212
0.29297
0.29327
0.31555
0.33478
0.33569
0.33264
0.32288
0.32349
0.35461
0.43335
0.5072
0.51239
0.4657
0.39612
0.34546
0.28992
0.2533
0.26306
0.28625
0.271
0.21179
0.16846
0.18341
0.22949
0.25757
0.26093
0.24139
0.22278
0.22491
0.26215
0.29327
0.28412
0.22827
0.19836
0.23499
0.37231
0.60669
0.92987
1.2543
1.4462
1.3992
1.1075
0.71075
0.37659
0.23499
0.2652
0.31708
0.27313
0.14526
0.036621
-0.007019
-0.030823
-0.051575
-0.030518
0.049438
0.13
0.17456
0.19836
0.21515
0.224
0.19928
0.19135
0.2002
0.21454
0.22186
0.23193
0.22919
0.22064
0.20874
0.21942
0.23712
0.26733
0.30243
0.34027
0.36743
0.37201
0.36346
0.3598
0.36774
0.36224
0.36041
0.37964
0.41901
0.4718
0.48767
0.50385
0.51514
0.48401
0.41656
0.32074
0.24689
0.19562
0.15442
0.13977
0.13184
0.11047
0.054932
0.0054932
-0.03418
-0.049744
-0.057373
-0.057983
-0.062561
-0.061951
-0.075684
-0.092773
-0.13275
-0.15778
-0.16357
-0.13672
-0.11841
-0.10803
-0.11597
-0.10223
-0.087585
-0.082703
-0.095825
-0.10773
-0.11078
-0.12115
-0.14984
-0.15625
-0.13733
-0.086975
-0.071716
-0.093384
-0.13733
-0.19196
-0.21729
-0.18646
-0.14587
-0.12543
-0.15808
-0.17761
-0.16876
-0.15747
-0.16998
-0.18066
-0.16388
-0.14648
-0.13916
-0.12756
-0.13702
-0.15991
-0.20508
-0.19958
-0.14832
-0.086365
-0.079041
-0.081482
-0.080566
-0.054321
-0.040894
-0.02655
-0.026855
-0.035095
-0.06897
-0.093079
-0.10681
-0.11871
-0.1532
-0.17548
-0.18433
-0.18799
-0.20447
-0.20264
-0.19073
-0.18433
-0.19958
-0.19592
-0.17181
-0.15533
-0.16174
-0.18097
-0.18555
-0.17731
-0.1413
-0.019836
0.19897
0.49316
0.80017
1.0297
1.059
0.80994
0.37079
-0.027771
-0.21851
-0.22736
-0.19989
-0.21942
-0.27222
-0.30853
-0.34119
-0.36621
-0.38605
-0.38788
-0.35797
-0.29755
-0.2301
-0.16357
-0.14984
-0.14374
-0.13794
-0.12146
-0.11322
-0.12146
-0.13458
-0.13794
-0.13031
-0.086975
-0.020447
0.023804
0.0097656
-0.041199
-0.060425
-0.047607
-0.015564
0.0177
0.065918
0.12421
0.16602
0.19287
0.21851
0.24658
0.2594
0.2536
0.25116
0.24811
0.24841
0.23773
0.22583
0.19806
0.15625
0.10956
0.064087
0.016174
-0.03479
-0.075989
-0.09613
-0.11383
-0.14465
-0.17365
-0.1947
-0.21393
-0.22766
-0.23041
-0.22491
-0.22858
-0.25208
-0.26917
-0.25879
-0.24811
-0.25116
-0.26428
-0.26215
-0.25421
-0.25513
-0.26428
-0.25879
-0.25391
-0.26215
-0.28839
-0.30487
-0.3186
-0.33722
-0.36499
-0.38208
-0.39429
-0.41321
-0.44006
-0.45593
-0.47241
-0.49408
-0.52032
-0.52734
-0.52795
-0.53284
-0.54871
-0.55054
-0.54779
-0.54901
-0.55969
-0.55481
-0.54474
-0.53528
-0.53223
-0.50323
-0.45929
-0.42023
-0.40375
-0.38544
-0.36499
-0.34912
-0.3479
-0.33997
-0.33112
-0.33356
-0.35767
-0.37659
-0.39368
-0.41809
-0.46021
-0.48523
-0.49316
-0.48859
-0.49042
-0.47821
-0.46143
-0.45135
-0.45868
-0.45197
-0.43671
-0.41931
-0.4187
-0.40833
-0.39459
-0.36743
-0.31921
-0.19287
0.02655
0.3244
0.63416
0.86426
0.8844
0.6311
0.21149
-0.14343
-0.29999
-0.29999
-0.29388
-0.32959
-0.39093
-0.43335
-0.46509
-0.47363
-0.46906
-0.44312
-0.40833
-0.35217
-0.29327
-0.24506
-0.22552
-0.20447
-0.1825
-0.16113
-0.15533
-0.13916
-0.11444
-0.092773
-0.088806
-0.07782
-0.055847
-0.028992
-0.018921
-0.0015259
0.023499
0.053406
0.06897
0.090637
0.11932
0.15015
0.16571
0.18738
0.21576
0.24231
0.24994
0.26031
0.2774
0.29175
0.27802
0.25665
0.23651
0.21545
0.17303
0.13062
0.095825
0.068665
0.031433
0.00030518
-0.026245
-0.05249
-0.093384
-0.12115
-0.1297
-0.13031
-0.14526
-0.15411
-0.15167
-0.14313
-0.15076
-0.15259
-0.14221
-0.12604
-0.12512
-0.12451
-0.11749
-0.10681
-0.11017
-0.10864
-0.10071
-0.094299
-0.10468
-0.11017
-0.10162
-0.089722
-0.095825
-0.10345
-0.098267
-0.086975
-0.090942
-0.098572
-0.093994
-0.080872
-0.078735
-0.083313
-0.085449
-0.083008
-0.087585
-0.090332
-0.084229
-0.078735
-0.085449
-0.089722
-0.081787
-0.071716
-0.076294
-0.084839
-0.078125
-0.067444
-0.068054
-0.067749
-0.047607
-0.019836
-0.005188
-0.0012207
0.015564
0.039063
0.049438
0.046082
0.047302
0.047913
0.033569
0.011902
-0.0039673
-0.021973
-0.053101
-0.086975
-0.096436
-0.091553
-0.091248
-0.097961
-0.094604
-0.087891
-0.089722
-0.095215
-0.087891
-0.081177
-0.082397
-0.092468
-0.091248
-0.073242
-0.023193
0.091553
0.30884
0.60394
0.91003
1.1075
1.1047
0.84442
0.44525
0.1004
-0.039978
-0.029297
-0.0097656
-0.058899
-0.13214
-0.18616
-0.21515
-0.23163
-0.22003
-0.18677
-0.1416
-0.098267
-0.042725
0.0082397
0.038757
0.04425
0.057068
0.074158
0.08728
0.086975
0.098267
0.11566
0.12878
0.13062
0.14526
0.16663
0.1828
0.18463
0.19867
0.22003
0.24109
0.24963
0.27222
0.3006
0.3241
0.32898
0.34424
0.36438
0.38544
0.39093
0.40466
0.41687
0.41626
0.38696
0.36194
0.33447
0.29938
0.24292
0.20142
0.16815
0.1413
0.099487
0.07019
0.041809
0.019531
-0.012207
-0.022583
-0.021057
-0.018921
-0.030212
-0.030212
-0.02533
-0.018311
-0.025024
-0.019226
-0.011597
-0.0061035
-0.016174
-0.012207
-0.0027466
0.0030518
-0.0097656
-0.0094604
0.0018311
0.011597
-0.0012207
-0.0085449
-0.0079346
-0.0045776
-0.01709
-0.019836
-0.015564
-0.0088501
-0.020142
-0.026245
-0.023193
-0.019531
-0.029297
-0.028076
-0.019531
-0.012207
-0.025024
-0.029907
-0.023499
-0.012207
-0.018921
-0.022583
-0.020142
-0.014954
-0.024414
-0.025024
-0.015869
0
0.0054932
0.018311
0.040283
0.06134
0.069275
0.082092
0.10162
0.11353
0.10376
0.09491
0.088196
0.077209
0.042419
0.0082397
-0.014038
-0.027466
-0.047607
-0.056763
-0.054016
-0.046692
-0.053101
-0.053406
-0.044556
-0.034485
-0.040283
-0.040894
-0.029602
-0.021057
-0.033264
-0.029602
0.02655
0.159
0.3653
0.65125
0.96832
1.1798
1.152
0.86334
0.46875
0.15259
0.014954
0.015564
0.038757
0.0079346
-0.068359
-0.13153
-0.15411
-0.15839
-0.16266
-0.14801
-0.097961
-0.037842
0.0067139
0.040283
0.071716
0.093384
0.095825
0.095215
0.11261
0.13367
0.14282
0.14862
0.16632
0.18219
0.18311
0.17761
0.18616
0.20325
0.21515
0.22858
0.25726
0.28412
0.29724
0.30579
0.33173
0.35889
0.37476
0.38177
0.40253
0.42206
0.42786
0.42084
0.42023
0.41077
0.38239
0.33966
0.31097
0.28778
0.25726
0.21851
0.19409
0.17059
0.14008
0.10468
0.088196
0.080261
0.065918
0.041199
0.030518
0.028687
0.028076
0.024414
0.0354
0.046387
0.050049
0.042419
0.05188
0.064392
0.070801
0.064392
0.075073
0.090027
0.099792
0.09491
0.10193
0.10712
0.10193
0.081787
0.082092
0.093079
0.099792
0.091553
0.094299
0.10162
0.10559
0.092468
0.094299
0.10315
0.11047
0.097351
0.090942
0.090332
0.096741
0.095215
0.10864
0.12421
0.13733
0.13794
0.15747
0.18097
0.19684
0.19012
0.19592
0.20935
0.22034
0.20386
0.1886
0.16937
0.14862
0.1123
0.092773
0.082397
0.07782
0.064392
0.067139
0.080872
0.09552
0.093689
0.098267
0.10254
0.10773
0.10223
0.11078
0.12146
0.12939
0.14252
0.22247
0.39459
0.66284
0.96832
1.2357
1.3263
1.1481
0.76263
0.38818
0.19196
0.17792
0.20447
0.18524
0.11536
0.042725
-0.017395
-0.042419
-0.044556
-0.019531
0.0177
0.078125
0.13763
0.18433
0.20233
0.22034
0.24231
0.26581
0.27008
0.27893
0.29449
0.3125
0.31647
0.32654
0.34698
0.36865
0.37079
0.37628
0.39063
0.41077
0.41412
0.42297
0.44159
0.4657
0.47607
0.49164
0.51453
0.53528
0.53375
0.53314
0.54321
0.5542
0.54047
0.5191
0.49866
0.4776
0.43671
0.39215
0.35675
0.32562
0.28076
0.2359
0.20172
0.17365
0.13733
0.11139
0.10162
0.09613
0.077209
0.061646
0.063782
0.071411
0.062256
0.053101
0.059204
0.072021
0.06958
0.061951
0.063782
0.072327
0.069885
0.065002
0.068359
0.071411
0.061646
0.051575
0.055542
0.062561
0.057983
0.051575
0.058594
0.065002
0.055237
0.039673
0.037537
0.042419
0.0354
0.022888
0.023499
0.029907
0.028381
0.019531
0.020447
0.022278
0.016174
0.0079346
0.014038
0.02594
0.032043
0.039368
0.062561
0.08606
0.093384
0.093689
0.10925
0.12634
0.12878
0.11627
0.11017
0.10254
0.079346
0.04364
0.018921
-0.00091553
-0.019531
-0.034485
-0.030212
-0.02594
-0.032959
-0.046692
-0.042114
-0.035095
-0.036011
-0.044861
-0.033875
-0.021057
-0.023499
-0.033569
0
0.094299
0.26062
0.49805
0.80414
1.0767
1.1716
0.99121
0.62683
0.25848
0.049744
0.0054932
0.036926
0.024719
-0.046387
-0.13031
-0.16937
-0.18158
-0.18616
-0.1889
-0.15381
-0.094299
-0.035706
0.0015259
0.038757
0.066528
0.083618
0.084839
0.099487
0.11719
0.12909
0.12634
0.13916
0.15533
0.16815
0.16815
0.18585
0.2121
0.23407
0.23743
0.25299
0.27771
0.30579
0.32043
0.34332
0.36804
0.38696
0.38818
0.39673
0.41199
0.42603
0.42145
0.41962
0.41138
0.39307
0.35248
0.31982
0.28931
0.25757
0.20996
0.17548
0.14801
0.12115
0.079346
0.050964
0.033569
0.020142
-0.0064087
-0.018005
-0.018616
-0.013428
-0.021057
-0.019836
-0.012207
-0.0048828
-0.013428
-0.010986
-0.00061035
0.010986
0.0079346
0.014343
0.02655
0.033875
0.020752
0.016785
0.023804
0.033569
0.024414
0.020142
0.024109
0.031433
0.024109
0.02533
0.032654
0.038757
0.026245
0.021362
0.030212
0.042725
0.036011
0.031128
0.031128
0.031738
0.021362
0.025024
0.047913
0.073547
0.081177
0.087891
0.10376
0.12207
0.12268
0.12207
0.12848
0.1358
0.12238
0.10132
0.081787
0.063782
0.033875
0.007019
-0.010681
-0.021362
-0.033264
-0.034485
-0.022888
-0.013428
-0.020447
-0.023499
-0.014343
-0.0042725
-0.0082397
-0.014038
-0.0085449
0.0054932
0.033264
0.11627
0.29114
0.5545
0.85815
1.1127
1.1954
1.0114
0.61951
0.23438
0.041504
0.041199
0.092773
0.083923
0.018311
-0.057068
-0.112
-0.14404
-0.14984
-0.14069
-0.12024
-0.082703
-0.026245
0.028076
0.063171
0.079346
0.097351
0.11017
0.11078
0.10986
0.12512
0.14313
0.15198
0.15594
0.1767
0.19989
0.21332
0.2182
0.23682
0.2594
0.27466
0.28168
0.30182
0.32318
0.33844
0.34515
0.36346
0.38177
0.38971
0.39063
0.40527
0.41656
0.41046
0.38269
0.36072
0.33966
0.3067
0.26367
0.23315
0.20721
0.17395
0.12756
0.095215
0.06897
0.04303
0.0085449
-0.0088501
-0.019836
-0.032043
-0.054626
-0.063171
-0.063782
-0.062256
-0.069275
-0.062866
-0.057373
-0.056763
-0.065613
-0.057678
-0.047607
-0.046387
-0.060425
-0.059814
-0.052185
-0.046387
-0.056458
-0.054932
-0.05188
-0.049744
-0.060425
-0.057373
-0.05127
-0.047302
-0.056458
-0.050964
-0.039063
-0.024109
-0.019226
-0.0036621
0.0094604
0.016785
0.0082397
0.012817
0.02655
0.0354
0.022888
0.011597
-0.0061035
-0.028992
-0.070801
-0.098267
-0.11169
-0.11627
-0.12939
-0.13092
-0.1239
-0.11597
-0.12085
-0.11688
-0.11108
-0.10712
-0.11841
-0.11993
-0.12085
-0.11902
-0.10742
-0.028992
0.13977
0.39917
0.7077
1.012
1.1703
1.0651
0.69122
0.25513
-0.036926
-0.11169
-0.084534
-0.073242
-0.12146
-0.19012
-0.24323
-0.2597
-0.26093
-0.25482
-0.24048
-0.18982
-0.12115
-0.06134
-0.033569
-0.010986
0.012817
0.034485
0.038147
0.040894
0.050964
0.063782
0.068054
0.082092
0.10376
0.12543
0.13
0.13824
0.15686
0.18036
0.19348
0.21362
0.24475
0.27954
0.29816
0.31555
0.33417
0.35034
0.35248
0.35797
0.37018
0.37781
0.36255
0.33813
0.31189
0.2771
0.22522
0.17487
0.13672
0.10101
0.052795
0.0097656
-0.019226
-0.044861
-0.080872
-0.11017
-0.12115
-0.12512
-0.1416
-0.15594
-0.15472
-0.14954
-0.15625
-0.16388
-0.15839
-0.14801
-0.14862
-0.15533
-0.15015
-0.14191
-0.14038
-0.13763
-0.12512
-0.11475
-0.12146
-0.1358
-0.13672
-0.13062
-0.13184
-0.13733
-0.13428
-0.13336
-0.13947
-0.1474
-0.13885
-0.13397
-0.14008
-0.14618
-0.13062
-0.10651
-0.094299
-0.092468
-0.07843
-0.059814
-0.05127
-0.056763
-0.059204
-0.061951
-0.073853
-0.093689
-0.10834
-0.13092
-0.16815
-0.21027
-0.23071
-0.23712
-0.24353
-0.25421
-0.25146
-0.24719
-0.25177
-0.26306
-0.25787
-0.24902
-0.2475
-0.25818
-0.26062
-0.25909
-0.23987
-0.17639
-0.021667
0.224
0.53833
0.85541
1.0663
1.0281
0.69794
0.23346
-0.1236
-0.26733
-0.2771
-0.28809
-0.32562
-0.37109
-0.40283
-0.43396
-0.44281
-0.42816
-0.38696
-0.33569
-0.27161
-0.21637
-0.18066
-0.17059
-0.15594
-0.1416
-0.13
-0.12939
-0.11475
-0.097656
-0.084839
-0.086975
-0.075989
-0.057983
-0.040283
-0.032959
-0.012512
0.013428
0.038147
0.049744
0.072937
0.1001
0.12482
0.13641
0.16022
0.18616
0.20569
0.20782
0.21973
0.23407
0.23895
0.2179
0.19562
0.16846
0.13489
0.085144
0.047607
0.015869
-0.016479
-0.062866
-0.096436
-0.12207
-0.14526
-0.17853
-0.19562
-0.20294
-0.20935
-0.22858
-0.23346
-0.22888
-0.22491
-0.23621
-0.23682
-0.22736
-0.21545
-0.21973
-0.21698
-0.20782
-0.19928
-0.20386
-0.2005
-0.19348
-0.18951
-0.2005
-0.19745
-0.1825
-0.16876
-0.17548
-0.17822
-0.17151
-0.16449
-0.17395
-0.18066
-0.17578
-0.16449
-0.16388
-0.1593
-0.15045
-0.14587
-0.15808
-0.16724
-0.16479
-0.15961
-0.16327
-0.15472
-0.12482
-0.09552
-0.08728
-0.084229
-0.068359
-0.045166
-0.036926
-0.033569
-0.028992
-0.028381
-0.042419
-0.056763
-0.064697
-0.083618
-0.12329
-0.15564
-0.16632
-0.16937
-0.18372
-0.19501
-0.18677
-0.17883
-0.18982
-0.20416
-0.20294
-0.19012
-0.18585
-0.1889
-0.18982
-0.18707
-0.15869
-0.061951
0.13519
0.41138
0.7074
0.91888
0.93628
0.69366
0.30273
-0.025635
-0.13855
-0.089722
-0.027466
-0.049133
-0.12207
-0.19348
-0.23682
-0.25787
-0.25665
-0.24384
-0.22095
-0.18829
-0.14191
-0.097656
-0.066528
-0.049133
-0.02533
-0.0045776
0.0082397
0.0177
0.041504
0.064087
0.075073
0.078125
0.095215
0.11353
0.12329
0.12909
0.15503
0.18738
0.21027
0.22034
0.24017
0.26062
0.2771
0.28839
0.31342
0.33569
0.34729
0.3479
0.36255
0.37262
0.36621
0.33905
0.32043
0.3006
0.27069
0.22827
0.19867
0.17548
0.14893
0.11047
0.08606
0.064392
0.040894
0.010376
-0.0033569
-0.010986
-0.021973
-0.042419
-0.043945
-0.037842
-0.03479
-0.046692
-0.044861
-0.037842
-0.029297
-0.031128
-0.020447
-0.010986
-0.0082397
-0.018616
-0.013733
-0.0033569
0.0027466
-0.005188
-0.0021362
0.0042725
0.0067139
-0.0064087
-0.0057983
0.00030518
0.0061035
0.00030518
0.010986
0.030823
0.05127
0.053711
0.062256
0.071411
0.079041
0.075073
0.084229
0.096436
0.096436
0.072021
0.052795
0.035706
0.016479
-0.019531
-0.040894
-0.047302
-0.045166
-0.053406
-0.049133
-0.040894
-0.036316
-0.049133
-0.051575
-0.045776
-0.037842
-0.04303
-0.039673
-0.03479
-0.023804
0.0054932
0.1123
0.31555
0.60272
0.90942
1.1569
1.218
1.008
0.59418
0.2005
-0.00061035
-0.0079346
0.032654
0.02594
-0.03479
-0.098572
-0.14282
-0.15656
-0.15411
-0.14343
-0.12543
-0.07843
-0.015564
0.040894
0.068054
0.086365
0.10468
0.12299
0.12634
0.13489
0.15106
0.16785
0.17242
0.1828
0.20203
0.22095
0.22552
0.23682
0.26215
0.29053
0.30518
0.32135
0.3479
0.37445
0.38818
0.40405
0.42908
0.45319
0.46112
0.466
0.47882
0.48462
0.46692
0.43823
0.41016
0.37506
0.32532
0.27771
0.24719
0.22003
0.18066
0.13977
0.11475
0.093994
0.065918
0.039673
0.031433
0.029907
0.021973
0.013123
0.015564
0.016785
0.0082397
-0.00030518
0.0082397
0.019226
0.018921
0.015869
0.02655
0.038452
0.036926
0.02594
0.029602
0.035706
0.03418
0.026855
0.030823
0.039063
0.037231
0.027771
0.030518
0.033264
0.028687
0.019226
0.024719
0.034485
0.037842
0.041199
0.065918
0.092773
0.10559
0.10254
0.11414
0.1297
0.13519
0.12451
0.12512
0.12329
0.11078
0.081177
0.058594
0.031433
-0.0012207
-0.034485
-0.039368
-0.034485
-0.036316
-0.049133
-0.045471
-0.036316
-0.032654
-0.044556
-0.042419
-0.034485
-0.028076
-0.035706
-0.030823
-0.0042725
0.067749
0.21027
0.46082
0.78674
1.1142
1.3013
1.2482
0.91248
0.44739
0.068665
-0.072632
-0.055542
-0.030518
-0.072021
-0.12085
-0.14618
-0.15747
-0.17761
-0.17548
-0.14313
-0.087891
-0.040588
0.010986
0.050659
0.074463
0.076904
0.090027
0.10956
0.1236
0.11871
0.1239
0.13733
0.1535
0.15625
0.16998
0.1886
0.20782
0.21454
0.23407
0.26093
0.28717
0.29846
0.32166
0.35004
0.3772
0.3891
0.41077
0.43579
0.45319
0.44708
0.44586
0.44708
0.43793
0.4007
0.36102
0.32379
0.28748
0.23621
0.19196
0.15503
0.12085
0.077209
0.046692
0.028381
0.013123
-0.013733
-0.027161
-0.029602
-0.030823
-0.047607
-0.054321
-0.049133
-0.040894
-0.046997
-0.045471
-0.033569
-0.021973
-0.027466
-0.030212
-0.023193
-0.015564
-0.021973
-0.023499
-0.016174
-0.010986
-0.022583
-0.027771
-0.021057
-0.014954
-0.026855
-0.036621
-0.033569
-0.026245
-0.029907
-0.025024
-0.0048828
0.016785
0.022583
0.02655
0.040894
0.055542
0.056458
0.055847
0.059814
0.058594
0.038757
0.018311
0.005188
-0.014343
-0.054016
-0.091858
-0.1062
-0.1062
-0.10986
-0.11414
-0.10834
-0.10437
-0.11139
-0.11658
-0.10834
-0.1004
-0.10468
-0.10986
-0.10345
-0.09613
-0.07843
-0.007019
0.16663
0.43549
0.75531
1.0547
1.2158
1.113
0.74524
0.29755
-0.0045776
-0.099182
-0.090637
-0.10101
-0.14618
-0.19684
-0.23163
-0.25116
-0.24872
-0.23315
-0.20569
-0.16632
-0.10834
-0.056152
-0.02533
-0.014648
0.0021362
0.020142
0.031433
0.03418
0.048523
0.061646
0.068665
0.069885
0.088196
0.10986
0.12573
0.13397
0.15808
0.18341
0.2002
0.20813
0.23407
0.26489
0.28778
0.29755
0.3186
0.3421
0.35858
0.36163
0.37628
0.38635
0.38239
0.35645
0.33447
0.30731
0.26917
0.2179
0.18463
0.15991
0.13153
0.087585
0.058899
0.039368
0.023193
-0.00030518
-0.010986
-0.018005
-0.02533
-0.042114
-0.041504
-0.036316
-0.032959
-0.041504
-0.033569
-0.018921
-0.0088501
-0.014343
-0.0088501
0.00061035
0.0082397
-0.0012207
0.0012207
0.0057983
0.0097656
-0.00030518
0.00061035
0.0061035
0.0085449
-0.0039673
-0.0054932
-0.0039673
-0.0048828
-0.019226
-0.018616
-0.011902
-0.0094604
-0.023499
-0.021973
-0.0057983
0.015869
0.021667
0.03479
0.05127
0.066528
0.067749
0.075378
0.084229
0.087585
0.06958
0.057068
0.042114
0.018005
-0.022888
-0.048218
-0.056458
-0.059509
-0.074768
-0.077515
-0.067749
-0.056763
-0.062866
-0.064697
-0.057983
-0.049438
-0.055237
-0.057678
-0.059204
-0.063171
-0.061951
0
0.14862
0.38269
0.66437
0.95673
1.138
1.0828
0.75165
0.32715
0.019531
-0.07843
-0.065613
-0.059814
-0.10834
-0.17975
-0.23743
-0.26337
-0.26733
-0.26337
-0.2533
-0.21606
-0.15839
-0.10315
-0.073242
-0.05188
-0.031128
-0.021057
-0.028076
-0.030212
-0.013733
0.0064087
0.010376
0.013123
0.026855
0.042419
0.045776
0.053711
0.075378
0.098877
0.10834
0.12024
0.14893
0.18127
0.2002
0.21484
0.24048
0.26337
0.26978
0.27069
0.28442
0.29755
0.29236
0.27466
0.25818
0.23376
0.19226
0.14679
0.11658
0.089111
0.05188
0.014954
-0.0033569
-0.018311
-0.04425
-0.074158
-0.08728
-0.095825
-0.11078
-0.12573
-0.12207
-0.11322
-0.11566
-0.12451
-0.12085
-0.11566
-0.11627
-0.11963
-0.10864
-0.1001
-0.10284
-0.11047
-0.1001
-0.090027
-0.093994
-0.10925
-0.10803
-0.10376
-0.10895
-0.12482
-0.12482
-0.11841
-0.11749
-0.12726
-0.12634
-0.12726
-0.13519
-0.15045
-0.14954
-0.14771
-0.1532
-0.1651
-0.15961
-0.15198
-0.15625
-0.17395
-0.17365
-0.16479
-0.15167
-0.14435
-0.12299
-0.10284
-0.090332
-0.08728
-0.069275
-0.057068
-0.057983
-0.074768
-0.07843
-0.084229
-0.1059
-0.1474
-0.17517
-0.19135
-0.20386
-0.22247
-0.22064
-0.20996
-0.20111
-0.20905
-0.20752
-0.20142
-0.19348
-0.19684
-0.18799
-0.18066
-0.18158
-0.19745
-0.17975
-0.11169
0.023193
0.22736
0.51483
0.82581
1.0284
0.99274
0.70984
0.31952
0.011597
-0.11444
-0.097961
-0.07843
-0.12421
-0.21301
-0.26581
-0.28351
-0.28809
-0.29388
-0.26337
-0.20233
-0.13916
-0.1001
-0.065002
-0.033264
-0.010681
-0.0082397
0.0030518
0.021667
0.040283
0.042114
0.05127
0.068054
0.088501
0.097046
0.1123
0.13245
0.15076
0.159
0.18097
0.21393
0.24139
0.25085
0.2655
0.29053
0.31403
0.32135
0.336
0.36072
0.38605
0.39276
0.39642
0.39856
0.38605
0.35248
0.32166
0.29724
0.26855
0.22308
0.18707
0.16876
0.14801
0.10864
0.072632
0.052795
0.039978
0.014343
-0.0085449
-0.014648
-0.013733
-0.019226
-0.024414
-0.022278
-0.023804
-0.0354
-0.038757
-0.028687
-0.022583
-0.03479
-0.045776
-0.041199
-0.037537
-0.048828
-0.061951
-0.059204
-0.052185
-0.056763
-0.064087
-0.059509
-0.054626
-0.058594
-0.066223
-0.063477
-0.064392
-0.074158
-0.080566
-0.07019
-0.063782
-0.072937
-0.077515
-0.053406
-0.032043
-0.031738
-0.046997
-0.039978
-0.027466
-0.024719
-0.030823
-0.018616
-0.00091553
0.016479
0.017395
-0.0024414
-0.044556
-0.096741
-0.13367
-0.14038
-0.16235
-0.21545
-0.26672
-0.29999
-0.31128
-0.31708
-0.32196
-0.30029
-0.26337
-0.24384
-0.25116
-0.25024
-0.24231
-0.22644
-0.22369
-0.18005
-0.10193
0.027161
0.24597
0.52887
0.79285
0.88043
0.72998
0.44952
0.16052
-0.061951
-0.17426
-0.14923
-0.1001
-0.11719
-0.21942
-0.29938
-0.2887
-0.20538
-0.11658
-0.016785
0.085144
0.17609
0.24597
0.3183
0.37781
0.41565
0.43243
0.46173
0.49469
0.53436
0.56244
0.59296
0.59784
0.58655
0.57465
0.59082
0.61981
0.64636
0.65369
0.68054
0.70465
0.72418
0.72754
0.73822
0.75928
0.78613
0.81055
0.83588
0.85571
0.87372
0.84412
0.7901
0.70496
0.63843
0.59967
0.58197
0.55145
0.50507
0.45349
0.43701
0.44037
0.43152
0.37384
0.30609
0.26367
0.25146
0.22736
0.2005
0.17639
0.17365
0.177
0.1889
0.19714
0.1944
0.1767
0.17151
0.17609
0.18341
0.17517
0.17487
0.18341
0.19043
0.18311
0.18372
0.18524
0.17975
0.15198
0.13947
0.14832
0.15839
0.15137
0.13916
0.13428
0.12604
0.098267
0.075989
0.062561
0.048828
0.019836
0.00061035
-0.0015259
-0.0079346
-0.037231
-0.065613
-0.071106
-0.060425
-0.057983
-0.055542
-0.049438
-0.045776
-0.056152
-0.06073
-0.059204
-0.065613
-0.090332
-0.1181
-0.13702
-0.16113
-0.20599
-0.2475
-0.26947
-0.2832
-0.30029
-0.31158
-0.30548
-0.29419
-0.29968
-0.31097
-0.30762
-0.3009
-0.29266
-0.28076
-0.26154
-0.25818
-0.26581
-0.24536
-0.15442
0.015259
0.25635
0.55542
0.85144
0.98694
0.85144
0.48798
0.096741
-0.14832
-0.21027
-0.19165
-0.19226
-0.25116
-0.33295
-0.39307
-0.4126
-0.41382
-0.40558
-0.38177
-0.32837
-0.27588
-0.24414
-0.2301
-0.20966
-0.19653
-0.19989
-0.21545
-0.20752
-0.19043
-0.17548
-0.16968
-0.1532
-0.13733
-0.12909
-0.12695
-0.10773
-0.086365
-0.073242
-0.067139
-0.041199
-0.0039673
0.02655
0.039368
0.06134
0.086975
0.1062
0.11536
0.13763
0.16357
0.18372
0.18097
0.18097
0.1709
0.14709
0.11017
0.087585
0.067444
0.037537
-0.0079346
-0.032349
-0.043945
-0.054626
-0.081787
-0.1001
-0.11749
-0.13367
-0.15686
-0.1593
-0.15228
-0.14557
-0.15259
-0.14801
-0.14099
-0.13641
-0.14221
-0.13489
-0.12726
-0.12848
-0.14465
-0.14282
-0.13306
-0.12268
-0.13214
-0.13153
-0.12817
-0.12695
-0.14099
-0.14008
-0.13519
-0.13062
-0.14038
-0.14191
-0.13855
-0.1416
-0.16266
-0.16876
-0.16205
-0.14648
-0.1474
-0.14557
-0.14618
-0.14587
-0.15442
-0.14648
-0.12787
-0.10834
-0.10193
-0.083923
-0.061035
-0.04303
-0.044556
-0.039063
-0.032654
-0.030518
-0.05127
-0.065308
-0.07782
-0.098877
-0.13733
-0.16205
-0.17181
-0.17334
-0.18433
-0.17914
-0.16541
-0.1535
-0.159
-0.15869
-0.15106
-0.14679
-0.15686
-0.15686
-0.14893
-0.1416
-0.13062
-0.064697
0.088196
0.32349
0.60577
0.88501
1.0419
0.9613
0.62988
0.23071
-0.035706
-0.1059
-0.079956
-0.068359
-0.11017
-0.17517
-0.22949
-0.24872
-0.24048
-0.22278
-0.20386
-0.16449
-0.10498
-0.050964
-0.022278
-0.0073242
0.010376
0.024109
0.024719
0.031128
0.048523
0.06897
0.075378
0.082397
0.1001
0.11322
0.11353
0.11444
0.13184
0.15625
0.17059
0.18677
0.21545
0.24109
0.25208
0.25757
0.27496
0.29388
0.30273
0.30731
0.32349
0.33447
0.32837
0.31616
0.30884
0.29266
0.25696
0.21484
0.1889
0.16266
0.12421
0.081787
0.058594
0.038452
0.010071
-0.024414
-0.039368
-0.049133
-0.062866
-0.079651
-0.075684
-0.064697
-0.06073
-0.069275
-0.07019
-0.072327
-0.073242
-0.075073
-0.061646
-0.050964
-0.054626
-0.066223
-0.061951
-0.057678
-0.057678
-0.069885
-0.065613
-0.06012
-0.062256
-0.071106
-0.066223
-0.061646
-0.064392
-0.075378
-0.068359
-0.062561
-0.067139
-0.084229
-0.080872
-0.070801
-0.066528
-0.079651
-0.079041
-0.073547
-0.06897
-0.076904
-0.066223
-0.045471
-0.022583
-0.010071
0.010681
0.029602
0.041199
0.036621
0.04364
0.050354
0.044556
0.018005
-0.0027466
-0.021057
-0.045776
-0.083008
-0.10071
-0.10376
-0.10101
-0.11414
-0.11658
-0.11139
-0.10284
-0.10712
-0.10193
-0.094299
-0.088196
-0.097046
-0.099487
-0.1001
-0.086975
-0.043335
0.085754
0.30518
0.58685
0.85907
1.03
0.98999
0.70282
0.29938
0.0021362
-0.089722
-0.055237
-0.048523
-0.10376
-0.18158
-0.23438
-0.26733
-0.27374
-0.26581
-0.24139
-0.2121
-0.15961
-0.098572
-0.05249
-0.041809
-0.036621
-0.025024
-0.0091553
-0.007019
0.00030518
0.013123
0.028992
0.030518
0.040283
0.056763
0.07019
0.071106
0.080872
0.10529
0.12848
0.13275
0.1416
0.16113
0.18158
0.18768
0.19806
0.22217
0.24628
0.25177
0.25726
0.27252
0.28534
0.27588
0.25787
0.23834
0.21179
0.16998
0.13397
0.11017
0.085144
0.046387
0.012817
-0.0064087
-0.024414
-0.054932
-0.083008
-0.093079
-0.096741
-0.1062
-0.11169
-0.1062
-0.10101
-0.10681
-0.11139
-0.10529
-0.1004
-0.10681
-0.11108
-0.10071
-0.090942
-0.093689
-0.099487
-0.093994
-0.090637
-0.098877
-0.10864
-0.10132
-0.091553
-0.091248
-0.098877
-0.098267
-0.10162
-0.11322
-0.12238
-0.11505
-0.11017
-0.11749
-0.12634
-0.11597
-0.1059
-0.11078
-0.12512
-0.12299
-0.11871
-0.12085
-0.12482
-0.10376
-0.073853
-0.054016
-0.048218
-0.033569
-0.019531
-0.011597
-0.012207
0.00030518
0.011597
0.007019
-0.014954
-0.028076
-0.047302
-0.079651
-0.12329
-0.1413
-0.14282
-0.14252
-0.15472
-0.15442
-0.14893
-0.1474
-0.15564
-0.15228
-0.1474
-0.14832
-0.15961
-0.15564
-0.14771
-0.13519
-0.1001
0.012817
0.20966
0.47638
0.75684
0.97717
1.0025
0.7663
0.37354
0.046692
-0.082092
-0.062256
-0.040894
-0.07782
-0.16327
-0.23529
-0.28168
-0.28168
-0.26215
-0.23224
-0.19897
-0.14496
-0.089722
-0.048523
-0.036926
-0.023804
-0.0094604
0.0042725
0.0036621
0.015564
0.028687
0.038147
0.033875
0.042114
0.054626
0.06958
0.072632
0.090332
0.112
0.12878
0.1297
0.14435
0.16754
0.1889
0.1889
0.19775
0.21759
0.24017
0.24689
0.25421
0.2652
0.27435
0.26581
0.25604
0.24048
0.21271
0.16846
0.13702
0.11566
0.090942
0.047302
0.013733
-0.0045776
-0.020142
-0.050964
-0.073853
-0.083618
-0.089722
-0.10834
-0.12177
-0.1236
-0.12299
-0.13123
-0.12909
-0.11688
-0.10773
-0.11871
-0.12299
-0.11078
-0.095825
-0.10345
-0.11536
-0.11719
-0.11139
-0.11658
-0.12054
-0.11749
-0.11292
-0.11963
-0.1239
-0.12085
-0.12207
-0.13794
-0.14771
-0.14069
-0.13245
-0.13916
-0.14496
-0.13641
-0.12695
-0.13519
-0.1474
-0.14099
-0.12787
-0.11963
-0.11047
-0.089722
-0.06958
-0.066223
-0.059814
-0.036316
-0.014954
-0.015259
-0.025635
-0.026855
-0.030823
-0.056152
-0.093689
-0.12085
-0.14557
-0.1709
-0.1889
-0.18616
-0.17975
-0.18646
-0.1947
-0.18677
-0.17639
-0.17273
-0.17426
-0.16357
-0.159
-0.16907
-0.18219
-0.16418
-0.10925
-0.0018311
0.18036
0.45624
0.75928
0.96313
0.9494
0.69244
0.31281
-0.0030518
-0.12939
-0.1001
-0.065613
-0.11322
-0.21515
-0.28687
-0.3186
-0.32898
-0.32928
-0.29358
-0.23621
-0.1825
-0.14557
-0.10498
-0.072937
-0.057983
-0.061035
-0.048218
-0.027161
-0.0082397
-0.0042725
0.0064087
0.013123
0.015869
0.014038
0.035706
0.057678
0.069275
0.070496
0.092468
0.12329
0.14526
0.1474
0.16022
0.18097
0.2005
0.20782
0.22369
0.24017
0.25055
0.24567
0.2478
0.24597
0.23468
0.20416
0.17975
0.15747
0.12695
0.085144
0.058594
0.037842
0.0177
-0.018616
-0.042419
-0.058899
-0.074463
-0.10101
-0.11688
-0.12451
-0.12787
-0.13885
-0.13611
-0.13397
-0.13916
-0.15411
-0.15045
-0.13336
-0.12054
-0.13092
-0.1358
-0.13519
-0.13428
-0.15045
-0.15594
-0.15442
-0.15106
-0.16052
-0.16022
-0.15503
-0.15472
-0.16968
-0.17303
-0.16602
-0.16235
-0.17822
-0.18158
-0.17181
-0.16235
-0.17334
-0.18158
-0.18005
-0.17548
-0.1825
-0.17883
-0.15808
-0.13062
-0.11658
-0.10406
-0.089417
-0.079041
-0.079956
-0.073242
-0.059204
-0.052185
-0.07019
-0.090942
-0.10834
-0.13275
-0.17212
-0.20081
-0.20691
-0.20203
-0.20813
-0.2063
-0.19226
-0.17853
-0.18097
-0.18372
-0.17303
-0.16357
-0.16785
-0.16937
-0.15747
-0.13519
-0.097046
0.00091553
0.19287
0.46326
0.75378
0.97015
1.0052
0.78674
0.40863
0.073853
-0.063477
-0.044556
-0.013123
-0.05188
-0.13275
-0.20996
-0.26306
-0.28625
-0.27466
-0.24292
-0.20691
-0.16724
-0.11322
-0.065002
-0.039368
-0.032043
-0.017395
-0.0015259
0.0042725
0.0064087
0.022278
0.039673
0.048218
0.050049
0.067749
0.084839
0.093689
0.096741
0.12238
0.15015
0.16724
0.17334
0.1947
0.22034
0.23682
0.24353
0.26184
0.28198
0.29297
0.29358
0.3067
0.31921
0.32104
0.30457
0.29083
0.26825
0.23499
0.19287
0.16968
0.14832
0.11719
0.073242
0.048828
0.032349
0.012817
-0.016174
-0.027466
-0.032654
-0.042725
-0.062256
-0.064697
-0.06012
-0.057678
-0.066833
-0.060425
-0.05249
-0.050964
-0.063171
-0.056763
-0.045166
-0.040588
-0.053406
-0.052795
-0.046082
-0.04303
-0.056458
-0.056763
-0.050049
-0.045776
-0.057068
-0.057678
-0.057983
-0.06012
-0.075378
-0.074463
-0.063782
-0.055237
-0.058594
-0.042725
-0.018311
0.0012207
-0.0015259
0.0039673
0.018005
0.032349
0.029907
0.036011
0.04425
0.040894
0.0079346
-0.02533
-0.051575
-0.072632
-0.10345
-0.11749
-0.11719
-0.11078
-0.11719
-0.11292
-0.10254
-0.093079
-0.10651
-0.11169
-0.10498
-0.090027
-0.093384
-0.098877
-0.097961
-0.070801
-0.0018311
0.15442
0.40649
0.71411
0.96863
1.0626
0.9024
0.54718
0.16846
-0.03479
-0.046692
-0.00091553
-0.031433
-0.11932
-0.19745
-0.23407
-0.25299
-0.25421
-0.23254
-0.19196
-0.15045
-0.10315
-0.052185
-0.015259
-0.0048828
0.005188
0.026245
0.044556
0.041199
0.037231
0.050964
0.071411
0.076599
0.080261
0.095825
0.11627
0.12573
0.13428
0.15594
0.18005
0.19409
0.20782
0.23163
0.25177
0.2594
0.26672
0.28931
0.30762
0.30334
0.29266
0.29663
0.3009
0.28198
0.24719
0.22247
0.20142
0.16907
0.12878
0.099487
0.074158
0.038147
0.0030518
-0.011292
-0.020142
-0.042419
-0.069885
-0.07843
-0.07782
-0.085144
-0.099182
-0.097046
-0.091858
-0.095215
-0.1059
-0.10101
-0.093689
-0.092468
-0.096436
-0.088501
-0.08606
-0.097351
-0.11292
-0.10529
-0.092163
-0.089111
-0.097961
-0.090027
-0.083313
-0.089111
-0.10681
-0.10559
-0.09491
-0.092468
-0.10376
-0.10345
-0.099792
-0.10223
-0.11383
-0.11108
-0.10559
-0.10437
-0.10773
-0.087891
-0.066833
-0.054626
-0.055847
-0.038147
-0.018005
-0.010071
-0.020447
-0.01709
-0.013733
-0.028687
-0.063171
-0.085449
-0.10651
-0.13672
-0.177
-0.18494
-0.17883
-0.17181
-0.18005
-0.16907
-0.15594
-0.15808
-0.17731
-0.17517
-0.1593
-0.14282
-0.15289
-0.15076
-0.13367
-0.083313
0.011902
0.19867
0.46814
0.76752
0.96405
0.96497
0.71228
0.3241
-0.015869
-0.14923
-0.13214
-0.10681
-0.16693
-0.2536
-0.31311
-0.33875
-0.36072
-0.35583
-0.32471
-0.26886
-0.22583
-0.18127
-0.14557
-0.12543
-0.12604
-0.11597
-0.099487
-0.081482
-0.083313
-0.074158
-0.061646
-0.055542
-0.066833
-0.06073
-0.039673
-0.014954
-0.0079346
0.0057983
0.028076
0.048828
0.053711
0.069885
0.096741
0.12329
0.12543
0.13519
0.15259
0.17365
0.1767
0.18463
0.19684
0.1944
0.16296
0.12909
0.10498
0.083618
0.042419
0.010071
-0.0097656
-0.029602
-0.07019
-0.11047
-0.13641
-0.15106
-0.17578
-0.19135
-0.19562
-0.19928
-0.21576
-0.22156
-0.21027
-0.20111
-0.21393
-0.22308
-0.2121
-0.19531
-0.19318
-0.19348
-0.18524
-0.17944
-0.19104
-0.19623
-0.18372
-0.17212
-0.18005
-0.18982
-0.18311
-0.17365
-0.18036
-0.19196
-0.18799
-0.18188
-0.18738
-0.1944
-0.1889
-0.18188
-0.18799
-0.19653
-0.18799
-0.17792
-0.17609
-0.17181
-0.14954
-0.12543
-0.11749
-0.11322
-0.092163
-0.072327
-0.071716
-0.082703
-0.077515
-0.076294
-0.096741
-0.13458
-0.15961
-0.17761
-0.19684
-0.21912
-0.21912
-0.21606
-0.22064
-0.23071
-0.22064
-0.20844
-0.20813
-0.2179
-0.20966
-0.19531
-0.19379
-0.21301
-0.20844
-0.16785
-0.074463
0.08667
0.33997
0.64545
0.89905
0.96649
0.79224
0.43121
0.067444
-0.14069
-0.15472
-0.11047
-0.13214
-0.22491
-0.29785
-0.3244
-0.32867
-0.33905
-0.32318
-0.2774
-0.21912
-0.17487
-0.12817
-0.090332
-0.06897
-0.071411
-0.06134
-0.046082
-0.030518
-0.030212
-0.015564
0.0054932
0.020447
0.018005
0.030212
0.049133
0.065308
0.064392
0.07782
0.10132
0.12482
0.13123
0.14709
0.16815
0.18555
0.18616
0.19958
0.21637
0.2243
0.21484
0.21912
0.2298
0.22461
0.18311
0.14526
0.11719
0.090332
0.044861
0.011597
-0.0082397
-0.022583
-0.053406
-0.078735
-0.097656
-0.11322
-0.13947
-0.14923
-0.14893
-0.14954
-0.16632
-0.16907
-0.16083
-0.15167
-0.16235
-0.16479
-0.15808
-0.15015
-0.15991
-0.1593
-0.14923
-0.13885
-0.14679
-0.14771
-0.1413
-0.13763
-0.15076
-0.1532
-0.1413
-0.12604
-0.13306
-0.13733
-0.13428
-0.13031
-0.14099
-0.14557
-0.13885
-0.12787
-0.13519
-0.13885
-0.13245
-0.12421
-0.13153
-0.13458
-0.12665
-0.11993
-0.12817
-0.13092
-0.11627
-0.10132
-0.10712
-0.11078
-0.096436
-0.071411
-0.06134
-0.053406
-0.0354
-0.012207
0.00061035
0.011902
0.02655
0.036011
0.02594
0.010376
-0.00030518
-0.019226
-0.055237
-0.090637
-0.10406
-0.10681
-0.11566
-0.12573
-0.11963
-0.10925
-0.11444
-0.12329
-0.11749
-0.10406
-0.10193
-0.10742
-0.10406
-0.10162
-0.10101
-0.071411
0.031738
0.21454
0.46448
0.75348
1.0025
1.0672
0.85754
0.47028
0.12848
-0.02655
-0.021057
0.017395
0.0067139
-0.061035
-0.13885
-0.19257
-0.20935
-0.21423
-0.21362
-0.19623
-0.14252
-0.085449
-0.04425
-0.024109
0.0030518
0.02594
0.033569
0.024719
0.034485
0.05188
0.063477
0.059204
0.068054
0.08728
0.10742
0.11536
0.13611
0.15686
0.17395
0.17914
0.19867
0.22278
0.24139
0.24719
0.2713
0.29846
0.31464
0.31006
0.32043
0.33997
0.35309
0.33875
0.32349
0.30762
0.28473
0.24506
0.21698
0.19012
0.16205
0.12054
0.096741
0.081482
0.063171
0.028992
0.012207
0.0036621
-0.0073242
-0.036011
-0.050659
-0.053101
-0.050964
-0.062866
-0.061951
-0.053101
-0.04364
-0.050354
-0.046692
-0.041809
-0.041199
-0.053406
-0.047302
-0.029602
-0.017395
-0.031128
-0.037537
-0.032959
-0.027466
-0.040283
-0.04303
-0.037842
-0.029602
-0.038452
-0.039673
-0.036926
-0.036926
-0.05188
-0.05127
-0.036621
-0.018311
-0.014648
-0.0015259
0.021667
0.039673
0.036011
0.036316
0.042725
0.046997
0.026855
0.0094604
-0.0015259
-0.015564
-0.050049
-0.080872
-0.097046
-0.10529
-0.12054
-0.12238
-0.11292
-0.1062
-0.11719
-0.11963
-0.1059
-0.09491
-0.10742
-0.11902
-0.11871
-0.11353
-0.10803
-0.056458
0.079956
0.30487
0.5838
0.87097
1.0498
0.99701
0.68146
0.27832
-0.0024414
-0.073547
-0.030518
0.0073242
-0.016785
-0.084229
-0.15533
-0.19745
-0.20966
-0.21271
-0.21515
-0.19714
-0.14648
-0.091248
-0.053406
-0.032654
-0.013123
-0.00091553
-0.00030518
0.0057983
0.029297
0.050964
0.054321
0.053711
0.069275
0.089417
0.096436
0.099487
0.12024
0.1474
0.16479
0.17578
0.19897
0.22369
0.23987
0.24963
0.271
0.28992
0.29541
0.29785
0.31525
0.33142
0.32684
0.30273
0.28168
0.25085
0.21149
0.16541
0.14221
0.12329
0.09552
0.059509
0.038147
0.018311
-0.0076294
-0.039978
-0.054626
-0.064697
-0.080261
-0.1004
-0.098877
-0.090332
-0.090332
-0.10193
-0.096436
-0.087891
-0.086975
-0.099182
-0.091858
-0.079041
-0.075073
-0.085754
-0.079956
-0.068054
-0.062866
-0.074768
-0.071106
-0.06134
-0.058899
-0.074463
-0.076294
-0.069885
-0.066528
-0.080566
-0.084229
-0.083923
-0.080261
-0.08606
-0.075073
-0.06073
-0.050964
-0.056152
-0.045471
-0.028381
-0.013123
-0.012207
0.0015259
0.018311
0.023804
0.0079346
0.0048828
0.0054932
-0.0027466
-0.040283
-0.069275
-0.086975
-0.098267
-0.12024
-0.12665
-0.12115
-0.11444
-0.12421
-0.12543
-0.12115
-0.11993
-0.13214
-0.12756
-0.11261
-0.10193
-0.11749
-0.11353
-0.064697
0.042725
0.20874
0.46173
0.77057
1.0303
1.0913
0.89569
0.52032
0.14984
-0.065613
-0.089722
-0.038147
-0.033264
-0.10284
-0.17029
-0.19562
-0.20203
-0.22247
-0.2298
-0.20294
-0.15198
-0.11566
-0.079346
-0.038147
-0.0021362
0.0094604
0.016785
0.032959
0.049744
0.049133
0.054016
0.070801
0.089417
0.091248
0.098267
0.12115
0.14374
0.14893
0.15594
0.18433
0.22003
0.23773
0.25177
0.27863
0.30884
0.32135
0.32867
0.34576
0.36377
0.3656
0.36224
0.36255
0.35126
0.3125
0.26672
0.23682
0.20874
0.1651
0.11749
0.087891
0.063782
0.028687
-0.0061035
-0.021057
-0.027771
-0.047302
-0.072327
-0.080566
-0.080872
-0.086975
-0.095825
-0.089417
-0.083618
-0.092468
-0.10406
-0.094299
-0.080566
-0.081787
-0.093689
-0.085144
-0.06958
-0.065308
-0.073547
-0.068054
-0.057678
-0.057068
-0.067139
-0.063477
-0.055847
-0.054626
-0.06134
-0.053711
-0.046692
-0.053101
-0.070801
-0.071106
-0.064697
-0.066528
-0.082703
-0.084229
-0.080872
-0.081787
-0.094604
-0.091248
-0.084839
-0.083008
-0.093994
-0.090027
-0.084534
-0.087585
-0.10345
-0.098572
-0.08606
-0.075378
-0.075684
-0.057373
-0.03418
-0.018311
-0.020447
-0.0073242
0.011597
0.020752
0.0054932
0
-0.0057983
-0.018921
-0.053711
-0.077209
-0.09552
-0.11353
-0.1413
-0.14496
-0.13733
-0.13489
-0.15228
-0.1535
-0.14465
-0.13733
-0.14893
-0.14526
-0.13092
-0.12085
-0.13672
-0.14069
-0.10956
-0.0177
0.14069
0.40192
0.72662
1.0275
1.1542
1.0397
0.69336
0.27527
-0.041504
-0.14862
-0.12817
-0.11292
-0.16327
-0.2182
-0.24261
-0.25085
-0.27191
-0.27222
-0.24048
-0.18494
-0.1416
-0.09552
-0.054626
-0.029297
-0.032043
-0.026245
-0.0057983
0.016479
0.014648
0.016174
0.030823
0.049438
0.053406
0.063171
0.082703
0.10437
0.10742
0.11993
0.14709
0.177
0.1886
0.2063
0.23834
0.27405
0.28839
0.3009
0.32135
0.33997
0.33844
0.33691
0.34332
0.34302
0.31311
0.27466
0.24139
0.20508
0.15228
0.10162
0.067749
0.038757
-0.0018311
-0.032959
-0.046997
-0.058594
-0.086365
-0.11169
-0.11566
-0.11169
-0.12329
-0.13702
-0.1355
-0.12726
-0.12817
-0.13123
-0.12177
-0.11353
-0.12085
-0.12817
-0.11871
-0.10468
-0.10468
-0.10742
-0.094299
-0.083008
-0.08728
-0.099182
-0.092163
-0.082397
-0.08667
-0.097046
-0.092773
-0.082397
-0.08606
-0.097656
-0.095825
-0.094604
-0.10315
-0.11749
-0.1123
-0.10315
-0.10925
-0.12512
-0.12085
-0.10742
-0.10498
-0.1178
-0.11841
-0.11292
-0.11475
-0.12573
-0.12177
-0.11108
-0.10956
-0.11871
-0.11505
-0.10925
-0.11322
-0.12695
-0.12177
-0.11078
-0.10956
-0.12024
-0.11353
-0.097961
-0.083618
-0.078735
-0.058899
-0.036621
-0.023499
-0.023804
-0.014038
-0.005188
-0.0076294
-0.022278
-0.024414
-0.028992
-0.04303
-0.075684
-0.095215
-0.11261
-0.13336
-0.16022
-0.16113
-0.15228
-0.1474
-0.16174
-0.16022
-0.15106
-0.14374
-0.15472
-0.15137
-0.1413
-0.13702
-0.15045
-0.13641
-0.078125
0.041809
0.22766
0.51025
0.84045
1.098
1.1389
0.9201
0.52338
0.13336
-0.10071
-0.14221
-0.1123
-0.12054
-0.1886
-0.23834
-0.25391
-0.25757
-0.27435
-0.26276
-0.21698
-0.15594
-0.11292
-0.071411
-0.0354
-0.014954
-0.023804
-0.021973
-0.0042725
0.017395
0.018616
0.025024
0.042114
0.063171
0.065613
0.075378
0.09552
0.11719
0.12268
0.13702
0.16602
0.19562
0.20477
0.22064
0.24933
0.28046
0.2887
0.30029
0.32379
0.3476
0.34912
0.35004
0.35858
0.3598
0.32837
0.28625
0.24963
0.21362
0.16327
0.11993
0.090942
0.063477
0.015259
-0.02594
-0.04364
-0.05127
-0.075684
-0.10162
-0.112
-0.11261
-0.12329
-0.13153
-0.12665
-0.12024
-0.12848
-0.13458
-0.12451
-0.11292
-0.11902
-0.12604
-0.11536
-0.1004
-0.10468
-0.11566
-0.11078
-0.099182
-0.10071
-0.10773
-0.10284
-0.095215
-0.1004
-0.11017
-0.10437
-0.097961
-0.10376
-0.11383
-0.10742
-0.099487
-0.10559
-0.11902
-0.11383
-0.1062
-0.112
-0.12787
-0.12604
-0.11963
-0.12238
-0.13367
-0.12817
-0.11902
-0.11963
-0.12787
-0.11902
-0.10986
-0.11322
-0.12817
-0.12421
-0.11566
-0.11841
-0.13184
-0.12543
-0.11322
-0.11169
-0.12451
-0.11993
-0.10834
-0.10376
-0.11017
-0.090027
-0.059509
-0.039673
-0.044556
-0.036926
-0.022583
-0.016479
-0.027771
-0.024414
-0.013428
-0.013428
-0.038147
-0.053711
-0.068665
-0.093384
-0.13702
-0.15625
-0.15442
-0.14648
-0.1532
-0.14893
-0.13885
-0.13
-0.13855
-0.1358
-0.13062
-0.13153
-0.14557
-0.14496
-0.1355
-0.11353
-0.066833
0.062866
0.28534
0.57648
0.8725
1.088
1.1017
0.84991
0.43213
0.072937
-0.094299
-0.10529
-0.1001
-0.12665
-0.18188
-0.22644
-0.26428
-0.27283
-0.2594
-0.23193
-0.20142
-0.15259
-0.09552
-0.048523
-0.036011
-0.024414
-0.010376
0.0048828
0.0036621
0.013123
0.032043
0.049438
0.047607
0.053101
0.068054
0.084229
0.08728
0.10681
0.13733
0.16144
0.16052
0.16998
0.19775
0.23071
0.24139
0.25757
0.28412
0.31372
0.3241
0.33508
0.35187
0.36194
0.3476
0.32959
0.31372
0.289
0.23865
0.19257
0.16266
0.13489
0.086365
0.038757
0.0097656
-0.010376
-0.04425
-0.076599
-0.090027
-0.093689
-0.10956
-0.1236
-0.12573
-0.12238
-0.13153
-0.13702
-0.12604
-0.11444
-0.12146
-0.12878
-0.12024
-0.10925
-0.11658
-0.12726
-0.11932
-0.10498
-0.10864
-0.11902
-0.11383
-0.10101
-0.10223
-0.11139
-0.10956
-0.10406
-0.11139
-0.12085
-0.11169
-0.098877
-0.10315
-0.11902
-0.11993
-0.11536
-0.12085
-0.13367
-0.13123
-0.12299
-0.12817
-0.13916
-0.13458
-0.1239
-0.12451
-0.13458
-0.13
-0.12268
-0.12665
-0.13855
-0.13306
-0.12329
-0.12787
-0.14252
-0.13702
-0.12543
-0.12604
-0.13916
-0.13275
-0.1181
-0.11322
-0.1236
-0.11932
-0.10834
-0.098572
-0.096436
-0.074158
-0.050659
-0.038147
-0.038757
-0.02655
-0.015869
-0.018921
-0.038452
-0.036621
-0.033264
-0.04425
-0.082092
-0.10803
-0.12695
-0.1416
-0.16449
-0.1651
-0.15625
-0.15137
-0.16327
-0.16205
-0.15686
-0.15411
-0.16602
-0.16052
-0.14771
-0.14191
-0.1593
-0.15411
-0.11078
-0.011902
0.14771
0.4007
0.71259
0.98785
1.0803
0.92743
0.56885
0.18036
-0.070496
-0.11932
-0.082703
-0.090027
-0.16968
-0.24048
-0.27008
-0.28015
-0.30212
-0.29663
-0.25452
-0.19379
-0.15045
-0.1059
-0.067139
-0.041199
-0.043945
-0.041809
-0.031128
-0.021362
-0.028076
-0.019836
0.00061035
0.020447
0.0177
0.024719
0.044861
0.066223
0.068054
0.07843
0.10101
0.13031
0.14282
0.16205
0.1886
0.21301
0.21912
0.23224
0.25482
0.27374
0.2713
0.27679
0.29083
0.2951
0.26459
0.22827
0.20233
0.177
0.12878
0.080566
0.046997
0.021057
-0.018921
-0.056763
-0.081787
-0.10406
-0.13611
-0.16083
-0.16907
-0.17517
-0.19592
-0.20782
-0.19836
-0.18585
-0.19379
-0.20508
-0.20081
-0.19135
-0.19745
-0.20386
-0.19836
-0.18951
-0.19684
-0.20599
-0.20081
-0.19592
-0.2066
-0.21759
-0.21179
-0.20325
-0.21027
-0.22125
-0.21515
-0.20844
-0.2179
-0.23224
-0.23132
-0.22705
-0.2359
-0.24811
-0.23865
-0.22491
-0.22675
-0.23895
-0.23834
-0.23529
-0.24109
-0.25146
-0.24384
-0.23407
-0.23956
-0.25146
-0.24536
-0.23499
-0.23804
-0.25208
-0.2478
-0.23865
-0.23956
-0.25024
-0.24384
-0.23163
-0.2301
-0.24017
-0.23315
-0.22186
-0.2179
-0.2182
-0.1947
-0.16571
-0.1532
-0.15686
-0.14069
-0.11871
-0.11139
-0.1297
-0.13153
-0.12421
-0.12848
-0.15778
-0.18158
-0.20294
-0.224
-0.25085
-0.25299
-0.24689
-0.24719
-0.26154
-0.25543
-0.24109
-0.2359
-0.25085
-0.24933
-0.23895
-0.23132
-0.24628
-0.24994
-0.23285
-0.17639
-0.065613
0.14526
0.43854
0.74799
0.93597
0.9201
0.65308
0.2652
-0.063477
-0.18738
-0.16876
-0.14923
-0.21454
-0.29907
-0.35492
-0.38025
-0.40161
-0.39673
-0.36163
-0.30365
-0.25787
-0.20752
-0.16449
-0.1358
-0.13611
-0.12817
-0.11108
-0.095215
-0.097351
-0.090332
-0.073547
-0.057068
-0.06012
-0.052795
-0.0354
-0.019226
-0.024719
-0.018311
0.0064087
0.039368
0.056458
0.079956
0.10803
0.13306
0.13855
0.1532
0.17792
0.19714
0.19165
0.19257
0.20294
0.20935
0.18677
0.16479
0.14496
0.11536
0.064087
0.028076
0.018921
0.013123
-0.024719
-0.070496
-0.10254
-0.12817
-0.16602
-0.19806
-0.21118
-0.22125
-0.25208
-0.28595
-0.30304
-0.3009
-0.29022
-0.2597
-0.21851
-0.1944
-0.2005
-0.20752
-0.1947
-0.18738
-0.20538
-0.22736
-0.23041
-0.22644
-0.23895
-0.25024
-0.24445
-0.23895
-0.25482
-0.27832
-0.27954
-0.271
-0.27466
-0.2829
-0.27893
-0.27161
-0.28015
-0.2951
-0.29541
-0.29541
-0.30975
-0.32715
-0.32593
-0.31616
-0.31952
-0.32715
-0.32043
-0.31342
-0.32135
-0.33661
-0.3302
-0.31525
-0.31372
-0.32471
-0.32745
-0.32806
-0.33478
-0.33966
-0.31799
-0.29083
-0.27222
-0.26337
-0.23956
-0.21667
-0.2063
-0.20599
-0.18677
-0.16815
-0.16724
-0.18158
-0.17914
-0.17609
-0.18951
-0.22827
-0.25635
-0.27527
-0.29175
-0.31281
-0.31494
-0.30823
-0.30304
-0.30518
-0.28992
-0.27466
-0.27008
-0.28137
-0.27924
-0.27313
-0.2771
-0.29724
-0.28168
-0.21423
-0.082397
0.11505
0.39551
0.69214
0.87128
0.80841
0.51147
0.12695
-0.16235
-0.27008
-0.24109
-0.21576
-0.26703
-0.37231
-0.44434
-0.47577
-0.48431
-0.49377
-0.46692
-0.40771
-0.33569
-0.28442
-0.23529
-0.20264
-0.18616
-0.19287
-0.18372
-0.16327
-0.14313
-0.14679
-0.14069
-0.12787
-0.11505
-0.11505
-0.098877
-0.072632
-0.051575
-0.053711
-0.039673
-0.0076294
0.027466
0.039063
0.057678
0.084839
0.11139
0.11353
0.12299
0.14282
0.16571
0.16998
0.17639
0.18585
0.18372
0.14832
0.11047
0.080566
0.057068
0.018005
-0.020752
-0.052795
-0.085449
-0.12787
-0.15961
-0.17548
-0.19104
-0.22003
-0.23773
-0.23621
-0.22888
-0.23926
-0.24597
-0.23743
-0.22949
-0.24323
-0.25391
-0.24536
-0.22614
-0.22522
-0.22919
-0.22247
-0.2124
-0.2182
-0.22461
-0.22003
-0.21179
-0.22156
-0.23163
-0.22675
-0.21912
-0.22827
-0.2356
-0.22461
-0.20996
-0.21698
-0.2356
-0.23651
-0.22797
-0.22736
-0.23163
-0.22644
-0.22095
-0.22858
-0.2359
-0.22797
-0.21942
-0.22705
-0.23407
-0.22003
-0.20233
-0.20111
-0.20966
-0.20203
-0.19257
-0.19897
-0.21118
-0.20081
-0.177
-0.15839
-0.15137
-0.13397
-0.11719
-0.10986
-0.10895
-0.093079
-0.082092
-0.085449
-0.10254
-0.10651
-0.11414
-0.14313
-0.19104
-0.21484
-0.21973
-0.21942
-0.22278
-0.21545
-0.20721
-0.20782
-0.21851
-0.21118
-0.20447
-0.20599
-0.21515
-0.2005
-0.18188
-0.17853
-0.17517
-0.11047
0.033264
0.25391
0.52216
0.8075
0.97321
0.89966
0.57281
0.19012
-0.065613
-0.13123
-0.10681
-0.097656
-0.15472
-0.24323
-0.31891
-0.33997
-0.33386
-0.3186
-0.30243
-0.24963
-0.1825
-0.12329
-0.095215
-0.070801
-0.051575
-0.041199
-0.045776
-0.034485
-0.014954
0.00061035
-0.0036621
0.0042725
0.019836
0.033569
0.030518
0.041809
0.065308
0.090637
0.099182
0.1178
0.14008
0.16266
0.16815
0.18402
0.20294
0.21942
0.22339
0.23926
0.26062
0.27283
0.26428
0.26276
0.26093
0.24933
0.20935
0.17639
0.15167
0.12268
0.072937
0.031128
0.0030518
-0.020447
-0.059814
-0.087891
-0.10193
-0.10925
-0.13275
-0.14893
-0.15656
-0.16052
-0.17426
-0.17517
-0.16418
-0.15778
-0.16815
-0.1709
-0.16052
-0.15167
-0.16113
-0.16205
-0.15167
-0.14404
-0.15686
-0.16479
-0.15656
-0.14618
-0.15472
-0.16296
-0.16144
-0.15717
-0.16541
-0.16479
-0.15411
-0.14526
-0.15411
-0.16052
-0.15442
-0.14984
-0.16266
-0.1709
-0.16357
-0.1535
-0.159
-0.16266
-0.15106
-0.13916
-0.14709
-0.15717
-0.15137
-0.14038
-0.13672
-0.12634
-0.097656
-0.06958
-0.065002
-0.066833
-0.050354
-0.028076
-0.022583
-0.030823
-0.03418
-0.042419
-0.066833
-0.1001
-0.12177
-0.14069
-0.16296
-0.17853
-0.17151
-0.16266
-0.16693
-0.17578
-0.16479
-0.14801
-0.14252
-0.14832
-0.14282
-0.13794
-0.14191
-0.15015
-0.12604
-0.063171
0.048828
0.22949
0.50323
0.80536
1.0086
0.98999
0.73517
0.36743
0.066833
-0.049744
-0.012207
0.030212
-0.011292
-0.11749
-0.19745
-0.23773
-0.25635
-0.26642
-0.23529
-0.17426
-0.11108
-0.068665
-0.024719
0.0085449
0.027161
0.029297
0.045471
0.063171
0.071411
0.065002
0.079956
0.10406
0.12024
0.11627
0.12512
0.14282
0.159
0.15961
0.17487
0.2005
0.2301
0.24628
0.26947
0.28778
0.29877
0.3006
0.32043
0.3476
0.36407
0.36133
0.36835
0.37323
0.36652
0.33386
0.30975
0.28748
0.2594
0.21301
0.177
0.15045
0.12299
0.083008
0.057678
0.039368
0.021667
-0.0048828
-0.010986
-0.0057983
-0.0097656
-0.033875
-0.039978
-0.031433
-0.023804
-0.038452
-0.039063
-0.024414
-0.0097656
-0.016174
-0.018005
-0.0091553
0.0012207
-0.0042725
-0.0030518
-0.00061035
-0.0045776
-0.02655
-0.031433
-0.016174
-0.00061035
-0.0085449
-0.015869
-0.014648
-0.012207
-0.026855
-0.033569
-0.026245
-0.016174
-0.025024
-0.029297
-0.019836
-0.0073242
-0.0073242
0.00091553
0.023193
0.043335
0.044556
0.050049
0.070496
0.088501
0.083923
0.078125
0.079956
0.078735
0.05249
0.020142
-0.0030518
-0.018005
-0.035095
-0.038452
-0.024109
-0.011292
-0.015564
-0.01709
-0.0042725
0.010376
0.0085449
0.0076294
0.022583
0.038147
0.032349
0.030823
0.075989
0.18829
0.36896
0.62561
0.9317
1.174
1.2082
0.97961
0.60974
0.28259
0.12909
0.13611
0.19318
0.18707
0.10742
0.024719
-0.0039673
-0.005188
-0.013733
-0.020447
0.015564
0.082397
0.14313
0.18402
0.21973
0.24445
0.25543
0.25787
0.27496
0.29266
0.29816
0.29907
0.3186
0.34119
0.35126
0.34882
0.36255
0.38422
0.39917
0.401
0.4184
0.44067
0.45868
0.46753
0.49286
0.5191
0.53375
0.53009
0.53986
0.55603
0.56488
0.55725
0.55847
0.55542
0.53345
0.48828
0.45532
0.42542
0.3891
0.33691
0.30334
0.27924
0.25238
0.21057
0.18433
0.1651
0.14465
0.11475
0.10559
0.10742
0.10742
0.091553
0.090637
0.095825
0.098877
0.085449
0.084839
0.090027
0.095215
0.085449
0.088806
0.097351
0.10193
0.088501
0.085449
0.085754
0.08606
0.072632
0.075378
0.083923
0.085754
0.069885
0.067444
0.072327
0.074158
0.057983
0.061035
0.082703
0.10925
0.11688
0.12726
0.13855
0.1474
0.14191
0.14801
0.15991
0.16449
0.14435
0.12817
0.11383
0.093689
0.054016
0.026855
0.015869
0.014954
0.0030518
0.0027466
0.012817
0.021057
0.012512
0.0079346
0.012207
0.019226
0.010986
0.0085449
0.0088501
0.013733
0.031433
0.11719
0.29724
0.56366
0.86182
1.1212
1.2115
1.0385
0.65247
0.26917
0.070496
0.068359
0.12146
0.12482
0.064697
-0.012512
-0.069275
-0.09491
-0.099792
-0.098267
-0.090637
-0.055237
0.0036621
0.060425
0.093384
0.11993
0.15106
0.17151
0.16602
0.159
0.17151
0.1947
0.20599
0.21362
0.23346
0.25238
0.25726
0.2652
0.2887
0.31647
0.32928
0.34424
0.3772
0.41077
0.42633
0.43427
0.45685
0.48309
0.495
0.49866
0.51514
0.52917
0.5249
0.50598
0.49133
0.46936
0.42816
0.37933
0.3476
0.3183
0.27557
0.22888
0.20508
0.19012
0.16418
0.13153
0.1181
0.11322
0.099792
0.080261
0.080566
0.088806
0.088806
0.079041
0.08606
0.09491
0.093079
0.082092
0.089111
0.10132
0.10132
0.087891
0.091248
0.10254
0.10498
0.090637
0.089722
0.094299
0.094299
0.080872
0.080261
0.083923
0.082703
0.068054
0.068359
0.07782
0.08728
0.090027
0.10803
0.12848
0.13977
0.13367
0.14038
0.14801
0.14557
0.12543
0.1181
0.11353
0.10193
0.065918
0.036621
0.0085449
-0.016785
-0.04425
-0.044861
-0.036316
-0.035706
-0.054626
-0.058289
-0.053406
-0.050049
-0.065613
-0.065918
-0.061035
-0.063477
-0.084839
-0.070496
0.0076294
0.16296
0.38391
0.68176
0.99213
1.1856
1.1255
0.81055
0.39001
0.061035
-0.077209
-0.06134
-0.032349
-0.064392
-0.14526
-0.19135
-0.20355
-0.20386
-0.21545
-0.19653
-0.14252
-0.080261
-0.042419
-0.0088501
0.019836
0.038147
0.033569
0.036621
0.049133
0.060425
0.053711
0.058594
0.075684
0.093079
0.091553
0.098572
0.11932
0.14374
0.14893
0.16144
0.18799
0.21881
0.23254
0.24963
0.27618
0.30243
0.30823
0.31769
0.33813
0.35706
0.35248
0.34576
0.34546
0.336
0.29633
0.25085
0.21912
0.19226
0.14771
0.10193
0.07019
0.045471
0.0091553
-0.022583
-0.037842
-0.049744
-0.076294
-0.098877
-0.1004
-0.09552
-0.1059
-0.11932
-0.11383
-0.1004
-0.10162
-0.1059
-0.095215
-0.082092
-0.082092
-0.088196
-0.078735
-0.066833
-0.068359
-0.075989
-0.067749
-0.057983
-0.062561
-0.072021
-0.062866
-0.050354
-0.053101
-0.067444
-0.065002
-0.055237
-0.05188
-0.048523
-0.025635
0.00061035
0.010986
0.0097656
0.023499
0.040283
0.039673
0.02594
0.028381
0.031738
0.016479
-0.016174
-0.038147
-0.055847
-0.082092
-0.11505
-0.12054
-0.11414
-0.11292
-0.1239
-0.12024
-0.11047
-0.11047
-0.1236
-0.11871
-0.10986
-0.10834
-0.12054
-0.11169
-0.074463
0.0039673
0.14801
0.40314
0.73151
1.0422
1.1853
1.0822
0.73059
0.29449
-0.028687
-0.12421
-0.090332
-0.076294
-0.13794
-0.20264
-0.23376
-0.24475
-0.2655
-0.26062
-0.22675
-0.17517
-0.13458
-0.084839
-0.038452
-0.0079346
-0.010071
-0.0021362
0.017395
0.038452
0.039063
0.046997
0.062561
0.079041
0.081177
0.097046
0.12146
0.14404
0.14648
0.16418
0.19318
0.22034
0.22491
0.24323
0.27557
0.30945
0.32043
0.3363
0.35889
0.38086
0.37842
0.38544
0.39185
0.38757
0.34912
0.31128
0.27771
0.24231
0.18433
0.13916
0.11139
0.088501
0.046387
0.015564
-0.0024414
-0.015259
-0.045471
-0.066528
-0.071716
-0.072632
-0.090637
-0.096436
-0.088196
-0.077209
-0.08728
-0.092468
-0.085144
-0.074463
-0.082092
-0.081787
-0.069885
-0.06073
-0.077209
-0.092163
-0.088196
-0.076904
-0.082397
-0.085754
-0.076599
-0.064697
-0.073242
-0.083008
-0.076904
-0.062256
-0.055847
-0.04425
-0.021973
-0.0033569
-0.0057983
-0.0067139
0.007019
0.018311
0.0061035
-0.013733
-0.018921
-0.023499
-0.050659
-0.086975
-0.10956
-0.11993
-0.13428
-0.14313
-0.13519
-0.12604
-0.13458
-0.14587
-0.1413
-0.13031
-0.13397
-0.14252
-0.13245
-0.12207
-0.12482
-0.112
-0.029297
0.14435
0.39703
0.70251
1.0007
1.1456
1.0269
0.67078
0.27618
0.019226
-0.051575
-0.02533
-0.007019
-0.054626
-0.14191
-0.21088
-0.22858
-0.22278
-0.22034
-0.21515
-0.17426
-0.11902
-0.077209
-0.054016
-0.028076
-0.0067139
0.00030518
-0.0030518
0.011902
0.031433
0.040588
0.038452
0.057068
0.082092
0.097656
0.097961
0.11292
0.13306
0.1474
0.14893
0.16998
0.19958
0.22797
0.2417
0.26581
0.28564
0.29755
0.29724
0.31464
0.33234
0.33386
0.31372
0.30426
0.29327
0.26672
0.21271
0.17334
0.14648
0.1236
0.08728
0.064697
0.046692
0.027161
-0.0067139
-0.023193
-0.032959
-0.044556
-0.070801
-0.076294
-0.070801
-0.067749
-0.083008
-0.083008
-0.073547
-0.064392
-0.077515
-0.075684
-0.064087
-0.049744
-0.054321
-0.049744
-0.039673
-0.033264
-0.043335
-0.040894
-0.036316
-0.038147
-0.058899
-0.054932
-0.031128
-0.0076294
-0.0057983
0.0061035
0.028076
0.047607
0.040283
0.040588
0.049438
0.059814
0.046082
0.034485
0.02594
0.010071
-0.030212
-0.061951
-0.078125
-0.082397
-0.09552
-0.095215
-0.084229
-0.075378
-0.08667
-0.092773
-0.088501
-0.082703
-0.093079
-0.094604
-0.08606
-0.081482
-0.091553
-0.067749
0.02533
0.20142
0.448
0.75195
1.0242
1.1188
0.93201
0.55511
0.18982
-0.011292
-0.043335
0.0024414
0.021057
-0.02533
-0.112
-0.16998
-0.18768
-0.1886
-0.19836
-0.19104
-0.14984
-0.10071
-0.070496
-0.044556
-0.011902
0.015259
0.018311
0.019836
0.037231
0.057983
0.059204
0.06073
0.079651
0.10651
0.11444
0.11658
0.13397
0.1593
0.17303
0.18585
0.21423
0.24536
0.25909
0.26581
0.28717
0.31128
0.32013
0.32288
0.33752
0.34851
0.33722
0.31433
0.3067
0.29877
0.26947
0.22491
0.1947
0.1712
0.13672
0.091248
0.064392
0.047607
0.025635
-0.0018311
-0.012817
-0.017395
-0.032043
-0.055542
-0.060425
-0.055847
-0.058289
-0.072937
-0.072327
-0.065308
-0.064392
-0.072327
-0.065613
-0.058289
-0.059509
-0.070496
-0.061951
-0.050964
-0.05249
-0.067139
-0.06134
-0.048218
-0.047302
-0.065613
-0.065613
-0.057068
-0.049744
-0.054626
-0.041809
-0.021667
-0.0082397
-0.010681
0.0012207
0.014343
0.017395
-0.00061035
-0.0042725
0
-0.0024414
-0.025635
-0.040894
-0.054626
-0.078735
-0.12268
-0.14557
-0.14893
-0.14374
-0.15259
-0.1474
-0.13916
-0.1355
-0.15045
-0.14954
-0.14008
-0.13306
-0.14343
-0.14191
-0.13214
-0.10742
-0.052185
0.097046
0.34454
0.64819
0.91919
1.0608
0.97626
0.65125
0.23254
-0.061951
-0.14618
-0.10559
-0.088501
-0.12695
-0.18951
-0.23529
-0.26947
-0.28229
-0.28259
-0.27008
-0.2533
-0.20874
-0.15259
-0.10681
-0.09613
-0.086975
-0.069885
-0.050049
-0.048828
-0.040894
-0.022583
-0.0030518
-0.0021362
0.0064087
0.023804
0.041199
0.041199
0.054321
0.083313
0.11169
0.11902
0.13123
0.16022
0.19226
0.20203
0.21088
0.2298
0.25269
0.25818
0.26245
0.27039
0.26825
0.23834
0.20142
0.17273
0.14008
0.088501
0.041199
0.012817
-0.010681
-0.050964
-0.089417
-0.10956
-0.12543
-0.15778
-0.18646
-0.19501
-0.19379
-0.20538
-0.21851
-0.21576
-0.21179
-0.22156
-0.2301
-0.22125
-0.21149
-0.22095
-0.23071
-0.21973
-0.20233
-0.20447
-0.21576
-0.21118
-0.19897
-0.20325
-0.21515
-0.21179
-0.20386
-0.20813
-0.21912
-0.21332
-0.20508
-0.21118
-0.22614
-0.22308
-0.21484
-0.22186
-0.23712
-0.23254
-0.22217
-0.22614
-0.24384
-0.24475
-0.2359
-0.23651
-0.24902
-0.24719
-0.24109
-0.24475
-0.25879
-0.25574
-0.24475
-0.23773
-0.23499
-0.2121
-0.18829
-0.18066
-0.18524
-0.16907
-0.14709
-0.14404
-0.16388
-0.1712
-0.17548
-0.18829
-0.21759
-0.23529
-0.25208
-0.27588
-0.30609
-0.30853
-0.29999
-0.29907
-0.31342
-0.31097
-0.30182
-0.30029
-0.31342
-0.30731
-0.29205
-0.28412
-0.29938
-0.29846
-0.26611
-0.18738
-0.049438
0.1886
0.49866
0.81116
0.98969
0.96008
0.6723
0.24689
-0.13214
-0.30029
-0.30212
-0.27679
-0.31586
-0.36743
-0.39581
-0.40894
-0.43427
-0.4364
-0.40466
-0.34882
-0.30579
-0.2594
-0.22095
-0.19745
-0.19958
-0.19043
-0.16937
-0.15167
-0.15472
-0.14496
-0.12726
-0.11108
-0.11749
-0.11047
-0.088806
-0.062866
-0.055542
-0.037842
-0.010376
0.0177
0.029297
0.053406
0.087891
0.11719
0.12268
0.13672
0.1651
0.19318
0.19592
0.2005
0.2124
0.21637
0.18799
0.15381
0.12573
0.096741
0.045776
0
-0.032349
-0.060425
-0.10468
-0.1413
-0.16113
-0.17578
-0.2066
-0.23132
-0.24017
-0.24567
-0.26672
-0.27924
-0.27313
-0.26215
-0.27161
-0.27771
-0.26733
-0.25269
-0.25635
-0.26001
-0.24902
-0.23743
-0.24445
-0.25085
-0.242
-0.23071
-0.23895
-0.24445
-0.23254
-0.21881
-0.22644
-0.23834
-0.23254
-0.22125
-0.22827
-0.24078
-0.23834
-0.2298
-0.23254
-0.23743
-0.22827
-0.21973
-0.22736
-0.23743
-0.23041
-0.22064
-0.22614
-0.23468
-0.22491
-0.21515
-0.22247
-0.23499
-0.22858
-0.2179
-0.22278
-0.23438
-0.22583
-0.21057
-0.20844
-0.2182
-0.21423
-0.20844
-0.21332
-0.22186
-0.20996
-0.19562
-0.19684
-0.20905
-0.20081
-0.18646
-0.18433
-0.19623
-0.18768
-0.16785
-0.15167
-0.14618
-0.12665
-0.10803
-0.10254
-0.11261
-0.10559
-0.09613
-0.1001
-0.12085
-0.12939
-0.13702
-0.15961
-0.19745
-0.21423
-0.21729
-0.22247
-0.23804
-0.23346
-0.22125
-0.21667
-0.22949
-0.22766
-0.21606
-0.20721
-0.21454
-0.20844
-0.20203
-0.20264
-0.20203
-0.14252
-0.0076294
0.20721
0.47974
0.80078
1.0519
1.1032
0.86761
0.46509
0.079956
-0.13763
-0.19684
-0.18311
-0.19531
-0.24536
-0.29938
-0.31433
-0.31372
-0.31464
-0.31677
-0.27527
-0.20935
-0.15167
-0.12817
-0.10468
-0.079651
-0.061646
-0.064697
-0.055847
-0.037537
-0.0177
-0.016785
-0.0064087
0.0094604
0.022888
0.021667
0.034485
0.057068
0.078735
0.084534
0.10498
0.13855
0.16998
0.18127
0.20172
0.23254
0.26123
0.26672
0.27832
0.30182
0.32471
0.32745
0.32898
0.32867
0.31433
0.2713
0.23102
0.19989
0.16663
0.11505
0.072632
0.046997
0.024719
-0.017395
-0.050964
-0.065918
-0.073547
-0.096436
-0.11566
-0.12115
-0.12115
-0.13641
-0.14496
-0.13733
-0.12543
-0.1297
-0.13123
-0.11963
-0.10712
-0.11017
-0.11139
-0.097351
-0.08606
-0.096436
-0.1062
-0.096436
-0.083618
-0.086365
-0.092773
-0.086975
-0.080872
-0.091858
-0.10071
-0.093689
-0.084534
-0.091553
-0.097656
-0.086975
-0.077209
-0.087891
-0.10101
-0.095215
-0.08667
-0.094604
-0.10712
-0.099487
-0.086365
-0.08728
-0.09491
-0.089111
-0.082397
-0.086975
-0.095215
-0.087891
-0.080566
-0.08667
-0.093689
-0.082092
-0.071106
-0.075073
-0.08667
-0.07843
-0.068665
-0.075073
-0.088806
-0.082092
-0.068054
-0.065613
-0.075989
-0.07019
-0.06012
-0.054626
-0.05188
-0.027466
-0.0024414
0.0030518
-0.0079346
0.0027466
0.025024
0.039063
0.028992
0.023499
0.015259
-0.0027466
-0.035095
-0.05188
-0.063171
-0.076599
-0.099182
-0.099182
-0.092163
-0.091248
-0.10437
-0.097961
-0.083923
-0.079956
-0.093079
-0.088501
-0.073547
-0.066833
-0.084839
-0.081177
-0.039063
0.058594
0.22003
0.47485
0.78796
1.0605
1.156
1.015
0.66132
0.2655
-0.0039673
-0.059814
-0.013123
-0.0030518
-0.073242
-0.14435
-0.17456
-0.18311
-0.20294
-0.20355
-0.17487
-0.12482
-0.083923
-0.039368
-0.0012207
0.023499
0.02533
0.038452
0.054626
0.066833
0.06073
0.07019
0.093689
0.112
0.10986
0.11658
0.13489
0.15686
0.16266
0.18097
0.20844
0.2359
0.24536
0.26245
0.2887
0.31219
0.3183
0.336
0.36133
0.38177
0.38025
0.38544
0.401
0.40405
0.37354
0.33936
0.31128
0.28137
0.22736
0.17792
0.14557
0.12115
0.082703
0.049438
0.027161
0.0048828
-0.031738
-0.057068
-0.063171
-0.067444
-0.089722
-0.10345
-0.09613
-0.085144
-0.095825
-0.10712
-0.10162
-0.090027
-0.095215
-0.099182
-0.089417
-0.077515
-0.084839
-0.091248
-0.082092
-0.072632
-0.080872
-0.089111
-0.079346
-0.066528
-0.074463
-0.084839
-0.07843
-0.06958
-0.079651
-0.093689
-0.089111
-0.076904
-0.080566
-0.090942
-0.086975
-0.079651
-0.086975
-0.10071
-0.099487
-0.09613
-0.10437
-0.11505
-0.10712
-0.09552
-0.10101
-0.11383
-0.10773
-0.098877
-0.10437
-0.12054
-0.11932
-0.10925
-0.10773
-0.11353
-0.10284
-0.08606
-0.073547
-0.066528
-0.04425
-0.025024
-0.021973
-0.030518
-0.021057
-0.010376
-0.015259
-0.038757
-0.050049
-0.059204
-0.082397
-0.12024
-0.13947
-0.14465
-0.14923
-0.16052
-0.15656
-0.15045
-0.15259
-0.16449
-0.15717
-0.14709
-0.14832
-0.16235
-0.15564
-0.14587
-0.14709
-0.15198
-0.1001
0.028076
0.23529
0.50354
0.81665
1.0547
1.0907
0.84839
0.45105
0.080872
-0.11383
-0.14557
-0.10468
-0.10559
-0.16418
-0.23529
-0.26306
-0.26733
-0.27008
-0.27802
-0.2475
-0.19318
-0.14069
-0.11169
-0.078125
-0.047913
-0.030518
-0.036621
-0.028076
-0.011292
0.0030518
-0.00030518
0.010071
0.029602
0.044556
0.041504
0.053101
0.079041
0.10376
0.10864
0.1239
0.15198
0.18311
0.1947
0.21545
0.24506
0.27344
0.28229
0.29694
0.31555
0.32928
0.32104
0.31921
0.31799
0.30182
0.2536
0.2063
0.16724
0.12756
0.069275
0.023804
-0.0045776
-0.02594
-0.062866
-0.093689
-0.11353
-0.12817
-0.15472
-0.16937
-0.17151
-0.17334
-0.19135
-0.19745
-0.18646
-0.17487
-0.18555
-0.19318
-0.18433
-0.17303
-0.18127
-0.18829
-0.18188
-0.16907
-0.17365
-0.1767
-0.16846
-0.16235
-0.17487
-0.1825
-0.17395
-0.16327
-0.17365
-0.18188
-0.17273
-0.16083
-0.16937
-0.18158
-0.1767
-0.16907
-0.17944
-0.19196
-0.18768
-0.1767
-0.18219
-0.19318
-0.19043
-0.18616
-0.19653
-0.2063
-0.19867
-0.18799
-0.19501
-0.20599
-0.19775
-0.18616
-0.19196
-0.20599
-0.20416
-0.19348
-0.1947
-0.19897
-0.19043
-0.17944
-0.18097
-0.18951
-0.18311
-0.17731
-0.18463
-0.19623
-0.18646
-0.16998
-0.16754
-0.1767
-0.1712
-0.16449
-0.16785
-0.17853
-0.16815
-0.14862
-0.13611
-0.12878
-0.10498
-0.080566
-0.075378
-0.086365
-0.080566
-0.068359
-0.066223
-0.081177
-0.085144
-0.088196
-0.10345
-0.1358
-0.15198
-0.16174
-0.17365
-0.19379
-0.19196
-0.18311
-0.18066
-0.19104
-0.18524
-0.17487
-0.17273
-0.18524
-0.17822
-0.16693
-0.16602
-0.177
-0.14557
-0.054016
0.10559
0.33203
0.63904
0.95245
1.131
1.0559
0.74036
0.33081
0.0073242
-0.1416
-0.14282
-0.13123
-0.17029
-0.24475
-0.28137
-0.28931
-0.29419
-0.3064
-0.27863
-0.21698
-0.15625
-0.12573
-0.096436
-0.068054
-0.048523
-0.052185
-0.043335
-0.023193
-0.0057983
-0.0091553
-0.0030518
0.012512
0.027771
0.024109
0.036621
0.062561
0.088196
0.092163
0.10834
0.13855
0.16937
0.17609
0.19165
0.22156
0.25787
0.27313
0.29022
0.31372
0.33478
0.33508
0.34027
0.34821
0.34546
0.31036
0.27405
0.24445
0.21118
0.15656
0.10834
0.077515
0.050049
0.0039673
-0.033264
-0.053101
-0.064697
-0.091248
-0.11353
-0.11993
-0.1236
-0.14099
-0.14923
-0.14191
-0.13306
-0.14404
-0.14862
-0.1358
-0.12238
-0.13153
-0.13977
-0.12878
-0.11475
-0.12085
-0.12787
-0.11841
-0.10376
-0.10529
-0.10956
-0.10132
-0.093689
-0.10376
-0.11322
-0.10681
-0.097961
-0.1059
-0.11353
-0.10376
-0.095215
-0.1062
-0.11993
-0.112
-0.099182
-0.10406
-0.11658
-0.11353
-0.10376
-0.10498
-0.11017
-0.10132
-0.092468
-0.096741
-0.10376
-0.09552
-0.08728
-0.095215
-0.10651
-0.09613
-0.082703
-0.08606
-0.10193
-0.098572
-0.087891
-0.087585
-0.097656
-0.090637
-0.079041
-0.076599
-0.083008
-0.070496
-0.049133
-0.036011
-0.034485
-0.01709
0.0015259
0.0057983
0.00030518
0.012817
0.031128
0.030518
0.0048828
-0.011597
-0.020752
-0.040283
-0.076904
-0.097046
-0.10315
-0.1062
-0.11719
-0.11169
-0.10315
-0.10345
-0.11658
-0.11047
-0.097656
-0.093384
-0.10651
-0.10193
-0.092468
-0.088806
-0.082703
-0.010986
0.14709
0.39001
0.67719
0.96619
1.1209
1.0324
0.68878
0.28717
0.010376
-0.064087
-0.032959
-0.00091553
-0.036011
-0.112
-0.18463
-0.21179
-0.21698
-0.21698
-0.21973
-0.18311
-0.1239
-0.06897
-0.04303
-0.018005
0.0048828
0.019836
0.015564
0.024414
0.041504
0.057678
0.056763
0.072327
0.098267
0.1181
0.11169
0.11566
0.13519
0.16083
0.16968
0.18799
0.21667
0.24536
0.2533
0.26947
0.29572
0.32166
0.32623
0.33813
0.3595
0.37811
0.37201
0.36743
0.36621
0.35278
0.30609
0.26123
0.2298
0.20142
0.15259
0.10895
0.081177
0.059204
0.020752
-0.010681
-0.028687
-0.043945
-0.073853
-0.092468
-0.089111
-0.082703
-0.097351
-0.10864
-0.10193
-0.090942
-0.1001
-0.10834
-0.098877
-0.083923
-0.090027
-0.097961
-0.090637
-0.078735
-0.082092
-0.088501
-0.083008
-0.076294
-0.085754
-0.093384
-0.083618
-0.072937
-0.082092
-0.093689
-0.087891
-0.076599
-0.083923
-0.096741
-0.093689
-0.085754
-0.092163
-0.10345
-0.099487
-0.093079
-0.099182
-0.10803
-0.098572
-0.087891
-0.09491
-0.10559
-0.097656
-0.08667
-0.093689
-0.10956
-0.10254
-0.083618
-0.070496
-0.063782
-0.043945
-0.023804
-0.015259
-0.012512
0.005188
0.016479
0.0067139
-0.014343
-0.018616
-0.020752
-0.041199
-0.077515
-0.097656
-0.10986
-0.12573
-0.14648
-0.14374
-0.13458
-0.13458
-0.14618
-0.1416
-0.13153
-0.13062
-0.1413
-0.13489
-0.12695
-0.13336
-0.14587
-0.11047
-0.010071
0.16144
0.40161
0.71075
0.9964
1.1142
0.96375
0.60669
0.21332
-0.044556
-0.12054
-0.080872
-0.062256
-0.11353
-0.19989
-0.24323
-0.25757
-0.26733
-0.28412
-0.26031
-0.20447
-0.15076
-0.12115
-0.085449
-0.049438
-0.027161
-0.034485
-0.029602
-0.011902
0.0085449
0.012817
0.02655
0.045166
0.058899
0.056763
0.071411
0.09613
0.1178
0.11993
0.13855
0.16907
0.19836
0.20752
0.22888
0.26001
0.28809
0.29327
0.30823
0.33325
0.35645
0.35522
0.35461
0.35126
0.33386
0.28656
0.24475
0.20935
0.16968
0.10834
0.060425
0.028992
-0.00061035
-0.050354
-0.088196
-0.10529
-0.11688
-0.14618
-0.16663
-0.17059
-0.16754
-0.18127
-0.18738
-0.18066
-0.17365
-0.18646
-0.19196
-0.18219
-0.16998
-0.17883
-0.18127
-0.17029
-0.15778
-0.16663
-0.17365
-0.16632
-0.15594
-0.16449
-0.17029
-0.16296
-0.15472
-0.16449
-0.17273
-0.16571
-0.1593
-0.17059
-0.17883
-0.17059
-0.16144
-0.17273
-0.18524
-0.17914
-0.1709
-0.18036
-0.19196
-0.18616
-0.17609
-0.1825
-0.19379
-0.19073
-0.18616
-0.19562
-0.20599
-0.19806
-0.18707
-0.19257
-0.20203
-0.19531
-0.18494
-0.19073
-0.20142
-0.19135
-0.17609
-0.177
-0.18127
-0.16052
-0.12939
-0.11383
-0.11383
-0.098267
-0.079346
-0.074463
-0.083923
-0.082703
-0.079346
-0.092773
-0.11749
-0.12909
-0.1416
-0.16968
-0.2066
-0.21637
-0.2124
-0.21576
-0.22888
-0.22461
-0.2121
-0.20966
-0.22156
-0.21881
-0.2121
-0.21118
-0.22308
-0.22064
-0.20172
-0.15503
-0.050964
0.15747
0.44861
0.76263
0.99304
1.0553
0.85999
0.46722
0.056458
-0.17242
-0.21118
-0.18616
-0.21301
-0.26825
-0.31616
-0.34454
-0.3714
-0.37354
-0.35187
-0.31311
-0.27466
-0.21881
-0.16632
-0.1358
-0.13855
-0.13245
-0.11627
-0.10071
-0.10071
-0.087891
-0.067444
-0.052795
-0.056763
-0.046692
-0.029602
-0.013428
-0.011902
0.007019
0.036316
0.059204
0.064697
0.08606
0.12054
0.15106
0.1593
0.17822
0.20813
0.23468
0.23773
0.24597
0.26184
0.27069
0.25299
0.23407
0.2124
0.17944
0.12207
0.075989
0.044861
0.012512
-0.041504
-0.08728
-0.11627
-0.13885
-0.17822
-0.2063
-0.21759
-0.224
-0.24353
-0.25452
-0.25238
-0.25116
-0.26733
-0.27313
-0.26154
-0.24902
-0.25574
-0.25421
-0.23682
-0.22186
-0.23071
-0.23743
-0.22736
-0.21576
-0.22552
-0.23224
-0.22247
-0.20935
-0.21515
-0.22125
-0.21423
-0.20782
-0.22125
-0.23224
-0.22705
-0.22003
-0.23071
-0.23865
-0.22644
-0.21301
-0.22247
-0.23895
-0.23834
-0.22949
-0.23376
-0.23865
-0.2298
-0.21881
-0.224
-0.23193
-0.22339
-0.21423
-0.22247
-0.23224
-0.22217
-0.20966
-0.21576
-0.22736
-0.21973
-0.20752
-0.21057
-0.21942
-0.20477
-0.17944
-0.16113
-0.15045
-0.12726
-0.1062
-0.098877
-0.099792
-0.08728
-0.080566
-0.091553
-0.10834
-0.10895
-0.10864
-0.1297
-0.1651
-0.1828
-0.19135
-0.20477
-0.22247
-0.21729
-0.20325
-0.19897
-0.20721
-0.20142
-0.19318
-0.19348
-0.20447
-0.19928
-0.19348
-0.19684
-0.19196
-0.12024
0.032959
0.26337
0.55054
0.86426
1.0696
1.0416
0.73883
0.33234
0.0094604
-0.12329
-0.12573
-0.099487
-0.12909
-0.20172
-0.27008
-0.29266
-0.29297
-0.29083
-0.28717
-0.24292
-0.18097
-0.13062
-0.11108
-0.090027
-0.070801
-0.056763
-0.059509
-0.047913
-0.031128
-0.019226
-0.021973
-0.0067139
0.014954
0.030823
0.029907
0.045166
0.068665
0.087891
0.091248
0.1123
0.14496
0.17242
0.18341
0.20721
0.23987
0.26642
0.27252
0.28778
0.30853
0.32257
0.31494
0.31433
0.31281
0.29755
0.25421
0.21698
0.1889
0.15747
0.10742
0.068054
0.039368
0.0067139
-0.045471
-0.084534
-0.10345
-0.11536
-0.1416
-0.15594
-0.15472
-0.14893
-0.1593
-0.16205
-0.15411
